# Pulseq sequence file
# Created by PyPulseq

[VERSION]
major 1
minor 3
revision 1

[DEFINITIONS]
Name external.seq 

# Format of blocks:
#  #  D RF  GX  GY  GZ ADC EXT
[BLOCKS]
  1  0  0   3   3   3  0  0
  2  0  1   9  10   5  1  0
  3  0  2  12  10   5  2  0
  4  0  3  14  10   5  3  0
  5  0  4  16  10   5  4  0
  6  0  5  18  10   5  5  0
  7  0  6  20  10   5  6  0
  8  0  7  22  10   5  7  0
  9  0  8  24  10   5  8  0
 10  0  9  26  10   5  9  0
 11  0 10  28  10   5 10  0
 12  0 11  30  10   5 11  0
 13  0 12  32  10   5 12  0
 14  0 13  34  10   5 13  0
 15  0 14  36  10   5 14  0
 16  0 15  38  10   5 15  0
 17  0 16  40  10   5 16  0
 18  0 17  42  10   5 17  0
 19  0 18  44  10   5 18  0
 20  0 19  46  10   5 19  0
 21  0 20  48  10   5 20  0
 22  0 21  50  10   5 21  0
 23  0 22  52  10   5 22  0
 24  0 23  54  10   5 23  0
 25  0 24  56  10   5 24  0
 26  0 25  58  10   5 25  0
 27  0 26  60  10   5 26  0
 28  0 27  62  10   5 27  0
 29  0 28  64  10   5 28  0
 30  0 29  66  10   5 29  0
 31  0 30  68  10   5 30  0
 32  0 31  70  10   5 31  0
 33  0 32  72  10   5 32  0
 34  0 33  74  10   5 33  0
 35  0 34  76  10   5 34  0
 36  0 35  78  10   5 35  0
 37  0 36  80  10   5 36  0
 38  0 37  82  10   5 37  0
 39  0 38  84  10   5 38  0
 40  0 39  86  10   5 39  0
 41  0 40  88  10   5 40  0
 42  0 41  90  10   5 41  0
 43  0 42  92  10   5 42  0
 44  0 43  94  10   5 43  0
 45  0 44  96  10   5 44  0
 46  0 45  98  10   5 45  0
 47  0 46 100  10   5 46  0
 48  0 47 102  10   5 47  0
 49  0 48 104  10   5 48  0
 50  0 49 106  10   5 49  0
 51  0 50 108  10   5 50  0
 52  0 51 110  10   5 51  0
 53  0 52 112  10   5 52  0
 54  0 53 114  10   5 53  0
 55  0 54 116  10   5 54  0
 56  0 55 118  10   5 55  0
 57  0 56 120  10   5 56  0
 58  0 57 122  10   5 57  0
 59  0 58 124  10   5 58  0
 60  0 59 126  10   5 59  0
 61  0 60 128  10   5 60  0
 62  0 61 130  10   5 61  0
 63  0 62 132  10   5 62  0
 64  0 63 134  10   5 63  0
 65  0 64 136  10   5 64  0
 66  0 65 138  10   5 65  0
 67  0 66 140  10   5 66  0
 68  0 67 142  10   5 67  0
 69  0 68 144  10   5 68  0
 70  0 69 146  10   5 69  0
 71  0 70 148  10   5 70  0
 72  0 71 150  10   5 71  0
 73  0 72 152  10   5 72  0
 74  0 73 154  10   5 73  0
 75  0 74 156  10   5 74  0
 76  0 75 158  10   5 75  0
 77  0 76 160  10   5 76  0
 78  0 77 162  10   5 77  0
 79  0 78 164  10   5 78  0
 80  0 79 166  10   5 79  0
 81  0 80 168  10   5 80  0
 82  0 81 170  10   5 81  0
 83  0 82 172  10   5 82  0
 84  0 83 174  10   5 83  0
 85  0 84 176  10   5 84  0
 86  0 85 178  10   5 85  0
 87  0 86 180  10   5 86  0
 88  0 87 182  10   5 87  0
 89  0 88 184  10   5 88  0
 90  0 89 186  10   5 89  0
 91  0 90 188  10   5 90  0
 92  0 91 190  10   5 91  0
 93  0 92 192  10   5 92  0
 94  0 93 194  10   5 93  0
 95  0 94 196  10   5 94  0
 96  0 95 198  10   5 95  0
 97  0 96 200  10   5 96  0
 98  0 97 202  10   5 97  0
 99  0 98 204  10   5 98  0
100  0 99 206  10   5 99  0
101  0 100 208  10   5 100  0
102  0 101 210  10   5 101  0
103  0 102 212  10   5 102  0
104  0 103 214  10   5 103  0
105  0 104 216  10   5 104  0
106  0 105 218  10   5 105  0
107  0 106 220  10   5 106  0
108  0 107 222  10   5 107  0
109  0 108 224  10   5 108  0
110  0 109 226  10   5 109  0
111  0 110 228  10   5 110  0
112  0 111 230  10   5 111  0
113  0 112 232  10   5 112  0
114  0 113 234  10   5 113  0
115  0 114 236  10   5 114  0
116  0 115 238  10   5 115  0
117  0 116 240  10   5 116  0
118  0 117 242  10   5 117  0
119  0 118 244  10   5 118  0
120  0 119 246  10   5 119  0
121  0 120 248  10   5 120  0
122  0 121 250  10   5 121  0
123  0 122 252  10   5 122  0
124  0 123 254  10   5 123  0
125  0 124 256  10   5 124  0
126  0 50 258  10   5 50  0
127  0 125 260  10   5 125  0
128  0 126 262  10   5 126  0
129  0 127 264  10   5 127  0

# Format of RF events:
# id amplitude mag_id phase_id delay freq phase
# ..        Hz   ....     ....    us   Hz   rad
[RF]
1      1426.68 1 2 100 0 39.2699
2      1426.68 1 2 100 0 47.9966
3      1426.68 1 2 100 0 57.5959
4      1426.68 1 2 100 0 68.0678
5      1426.68 1 2 100 0 79.4125
6      1426.68 1 2 100 0 91.6298
7      1426.68 1 2 100 0 104.72
8      1426.68 1 2 100 0 118.682
9      1426.68 1 2 100 0 133.518
10      1426.68 1 2 100 0 149.226
11      1426.68 1 2 100 0 165.806
12      1426.68 1 2 100 0 183.26
13      1426.68 1 2 100 0 201.586
14      1426.68 1 2 100 0 220.784
15      1426.68 1 2 100 0 240.855
16      1426.68 1 2 100 0 261.799
17      1426.68 1 2 100 0 283.616
18      1426.68 1 2 100 0 306.305
19      1426.68 1 2 100 0 329.867
20      1426.68 1 2 100 0 354.302
21      1426.68 1 2 100 0 379.609
22      1426.68 1 2 100 0 405.789
23      1426.68 1 2 100 0 432.842
24      1426.68 1 2 100 0 460.767
25      1426.68 1 2 100 0 489.565
26      1426.68 1 2 100 0 519.235
27      1426.68 1 2 100 0 549.779
28      1426.68 1 2 100 0 581.195
29      1426.68 1 2 100 0 613.483
30      1426.68 1 2 100 0 646.644
31      1426.68 1 2 100 0 680.678
32      1426.68 1 2 100 0 715.585
33      1426.68 1 2 100 0 751.364
34      1426.68 1 2 100 0 788.016
35      1426.68 1 2 100 0 825.541
36      1426.68 1 2 100 0 863.938
37      1426.68 1 2 100 0 903.208
38      1426.68 1 2 100 0 943.35
39      1426.68 1 2 100 0 984.366
40      1426.68 1 2 100 0 1026.25
41      1426.68 1 2 100 0 1069.01
42      1426.68 1 2 100 0 1112.65
43      1426.68 1 2 100 0 1157.15
44      1426.68 1 2 100 0 1202.53
45      1426.68 1 2 100 0 1248.78
46      1426.68 1 2 100 0 1295.91
47      1426.68 1 2 100 0 1343.9
48      1426.68 1 2 100 0 1392.77
49      1426.68 1 2 100 0 1442.51
50      1426.68 1 2 100 0 1493.13
51      1426.68 1 2 100 0 1544.62
52      1426.68 1 2 100 0 1596.98
53      1426.68 1 2 100 0 1650.21
54      1426.68 1 2 100 0 1704.31
55      1426.68 1 2 100 0 1759.29
56      1426.68 1 2 100 0 1815.14
57      1426.68 1 2 100 0 1871.87
58      1426.68 1 2 100 0 1929.46
59      1426.68 1 2 100 0 1987.93
60      1426.68 1 2 100 0 2047.27
61      1426.68 1 2 100 0 2107.49
62      1426.68 1 2 100 0 2168.57
63      1426.68 1 2 100 0 2230.53
64      1426.68 1 2 100 0 2293.36
65      1426.68 1 2 100 0 2357.07
66      1426.68 1 2 100 0 2421.64
67      1426.68 1 2 100 0 2487.09
68      1426.68 1 2 100 0 2553.42
69      1426.68 1 2 100 0 2620.61
70      1426.68 1 2 100 0 2688.68
71      1426.68 1 2 100 0 2757.62
72      1426.68 1 2 100 0 2827.43
73      1426.68 1 2 100 0 2898.12
74      1426.68 1 2 100 0 2969.68
75      1426.68 1 2 100 0 3042.11
76      1426.68 1 2 100 0 3115.41
77      1426.68 1 2 100 0 3189.59
78      1426.68 1 2 100 0 3264.64
79      1426.68 1 2 100 0 3340.56
80      1426.68 1 2 100 0 3417.35
81      1426.68 1 2 100 0 3495.02
82      1426.68 1 2 100 0 3573.56
83      1426.68 1 2 100 0 3652.97
84      1426.68 1 2 100 0 3733.26
85      1426.68 1 2 100 0 3814.42
86      1426.68 1 2 100 0 3896.45
87      1426.68 1 2 100 0 3979.35
88      1426.68 1 2 100 0 4063.13
89      1426.68 1 2 100 0 4147.77
90      1426.68 1 2 100 0 4233.3
91      1426.68 1 2 100 0 4319.69
92      1426.68 1 2 100 0 4406.96
93      1426.68 1 2 100 0 4495.1
94      1426.68 1 2 100 0 4584.11
95      1426.68 1 2 100 0 4673.99
96      1426.68 1 2 100 0 4764.75
97      1426.68 1 2 100 0 4856.38
98      1426.68 1 2 100 0 4948.88
99      1426.68 1 2 100 0 5042.26
100      1426.68 1 2 100 0 5136.5
101      1426.68 1 2 100 0 5231.62
102      1426.68 1 2 100 0 5327.62
103      1426.68 1 2 100 0 5424.48
104      1426.68 1 2 100 0 5522.22
105      1426.68 1 2 100 0 5620.83
106      1426.68 1 2 100 0 5720.32
107      1426.68 1 2 100 0 5820.67
108      1426.68 1 2 100 0 5921.9
109      1426.68 1 2 100 0 6024
110      1426.68 1 2 100 0 6126.98
111      1426.68 1 2 100 0 6230.83
112      1426.68 1 2 100 0 52.3599
113      1426.68 1 2 100 0 157.952
114      1426.68 1 2 100 0 264.417
115      1426.68 1 2 100 0 371.755
116      1426.68 1 2 100 0 479.966
117      1426.68 1 2 100 0 589.049
118      1426.68 1 2 100 0 699.004
119      1426.68 1 2 100 0 809.833
120      1426.68 1 2 100 0 921.534
121      1426.68 1 2 100 0 1034.11
122      1426.68 1 2 100 0 1147.55
123      1426.68 1 2 100 0 1261.87
124      1426.68 1 2 100 0 1377.06
125      1426.68 1 2 100 0 1610.07
126      1426.68 1 2 100 0 1727.88
127      1426.68 1 2 100 0 1846.56

# Format of trapezoid gradients:
# id amplitude rise flat fall delay
# ..      Hz/m   us   us   us    us
[TRAP]
 1        0.001 1000 4000 1000   0
 2        0.001 1000 4000 1000 500000
 3        0.001 1000 4000 1000 1e+06
 4      0.00634  60 2000  60  40
 5     -0.02512 210   50 210 2160
 6     -0.01392 170  190 170 8650
 7     -0.01481 170  170 170 8650
 8      0.00261  20 3650 210 9160
 9      0.00982 170  340 170 13020
10        0.042 210  260 210 13020
11      -0.0137 170  190 170 8650
12      0.00967 170  340 170 13020
13     -0.01348 170  190 170 8650
14      0.00952 170  340 170 13020
15     -0.01327 170  190 170 8650
16      0.00936 170  340 170 13020
17     -0.01305 170  190 170 8650
18      0.00921 170  340 170 13020
19     -0.01283 170  190 170 8650
20      0.00906 170  340 170 13020
21     -0.01261 170  190 170 8650
22       0.0089 170  340 170 13020
23      -0.0124 170  190 170 8650
24      0.00875 170  340 170 13020
25     -0.01218 170  190 170 8650
26       0.0086 170  340 170 13020
27     -0.01196 170  190 170 8650
28      0.00844 170  340 170 13020
29     -0.01174 170  190 170 8650
30      0.00829 170  340 170 13020
31     -0.01153 170  190 170 8650
32      0.00814 170  340 170 13020
33     -0.01131 170  190 170 8650
34      0.00798 170  340 170 13020
35     -0.01109 170  190 170 8650
36      0.00783 170  340 170 13020
37     -0.01087 170  190 170 8650
38      0.00768 170  340 170 13020
39     -0.01066 170  190 170 8650
40      0.00752 170  340 170 13020
41     -0.01044 170  190 170 8650
42      0.00737 170  340 170 13020
43     -0.01022 170  190 170 8650
44      0.00722 170  340 170 13020
45        -0.01 170  190 170 8650
46      0.00706 170  340 170 13020
47     -0.00979 170  190 170 8650
48      0.00691 170  340 170 13020
49     -0.00957 170  190 170 8650
50      0.00675 170  340 170 13020
51     -0.00935 170  190 170 8650
52       0.0066 170  340 170 13020
53     -0.00913 170  190 170 8650
54      0.00645 170  340 170 13020
55     -0.00892 170  190 170 8650
56      0.00629 170  340 170 13020
57      -0.0087 170  190 170 8650
58      0.00614 170  340 170 13020
59     -0.00848 170  190 170 8650
60      0.00599 170  340 170 13020
61     -0.00826 170  190 170 8650
62      0.00583 170  340 170 13020
63     -0.00805 170  190 170 8650
64      0.00568 170  340 170 13020
65     -0.00783 170  190 170 8650
66      0.00553 170  340 170 13020
67     -0.00761 170  190 170 8650
68      0.00537 170  340 170 13020
69     -0.00739 170  190 170 8650
70      0.00522 170  340 170 13020
71     -0.00718 170  190 170 8650
72      0.00507 170  340 170 13020
73     -0.00696 170  190 170 8650
74      0.00491 170  340 170 13020
75     -0.00674 170  190 170 8650
76      0.00476 170  340 170 13020
77     -0.00652 170  190 170 8650
78      0.00461 170  340 170 13020
79     -0.00631 170  190 170 8650
80      0.00445 170  340 170 13020
81     -0.00609 170  190 170 8650
82       0.0043 170  340 170 13020
83     -0.00587 170  190 170 8650
84      0.00414 170  340 170 13020
85     -0.00565 170  190 170 8650
86      0.00399 170  340 170 13020
87     -0.00544 170  190 170 8650
88      0.00384 170  340 170 13020
89     -0.00522 170  190 170 8650
90      0.00368 170  340 170 13020
91       -0.005 170  190 170 8650
92      0.00353 170  340 170 13020
93     -0.00478 170  190 170 8650
94      0.00338 170  340 170 13020
95     -0.00457 170  190 170 8650
96      0.00322 170  340 170 13020
97     -0.00435 170  190 170 8650
98      0.00307 170  340 170 13020
99     -0.00413 170  190 170 8650
100      0.00292 170  340 170 13020
101     -0.00391 170  190 170 8650
102      0.00276 170  340 170 13020
103      -0.0037 170  190 170 8650
104      0.00261 170  340 170 13020
105     -0.00348 170  190 170 8650
106      0.00246 170  340 170 13020
107     -0.00326 170  190 170 8650
108       0.0023 170  340 170 13020
109     -0.00304 170  190 170 8650
110      0.00215 170  340 170 13020
111     -0.00283 170  190 170 8650
112        0.002 170  340 170 13020
113     -0.00261 170  190 170 8650
114      0.00184 170  340 170 13020
115     -0.00239 170  190 170 8650
116      0.00169 170  340 170 13020
117     -0.00217 170  190 170 8650
118      0.00154 170  340 170 13020
119     -0.00196 170  190 170 8650
120      0.00138 170  340 170 13020
121     -0.00174 170  190 170 8650
122      0.00123 170  340 170 13020
123     -0.00152 170  190 170 8650
124      0.00107 170  340 170 13020
125      -0.0013 170  190 170 8650
126      0.00092 170  340 170 13020
127     -0.00109 170  190 170 8650
128      0.00077 170  340 170 13020
129     -0.00087 170  190 170 8650
130      0.00061 170  340 170 13020
131     -0.00065 170  190 170 8650
132      0.00046 170  340 170 13020
133     -0.00043 170  190 170 8650
134      0.00031 170  340 170 13020
135     -0.00022 170  190 170 8650
136      0.00015 170  340 170 13020
137            0 170  190 170 8650
138            0 170  340 170 13020
139      0.00022 170  190 170 8650
140     -0.00015 170  340 170 13020
141      0.00043 170  190 170 8650
142     -0.00031 170  340 170 13020
143      0.00065 170  190 170 8650
144     -0.00046 170  340 170 13020
145      0.00087 170  190 170 8650
146     -0.00061 170  340 170 13020
147      0.00109 170  190 170 8650
148     -0.00077 170  340 170 13020
149       0.0013 170  190 170 8650
150     -0.00092 170  340 170 13020
151      0.00152 170  190 170 8650
152     -0.00107 170  340 170 13020
153      0.00174 170  190 170 8650
154     -0.00123 170  340 170 13020
155      0.00196 170  190 170 8650
156     -0.00138 170  340 170 13020
157      0.00217 170  190 170 8650
158     -0.00154 170  340 170 13020
159      0.00239 170  190 170 8650
160     -0.00169 170  340 170 13020
161      0.00261 170  190 170 8650
162     -0.00184 170  340 170 13020
163      0.00283 170  190 170 8650
164       -0.002 170  340 170 13020
165      0.00304 170  190 170 8650
166     -0.00215 170  340 170 13020
167      0.00326 170  190 170 8650
168      -0.0023 170  340 170 13020
169      0.00348 170  190 170 8650
170     -0.00246 170  340 170 13020
171       0.0037 170  190 170 8650
172     -0.00261 170  340 170 13020
173      0.00391 170  190 170 8650
174     -0.00276 170  340 170 13020
175      0.00413 170  190 170 8650
176     -0.00292 170  340 170 13020
177      0.00435 170  190 170 8650
178     -0.00307 170  340 170 13020
179      0.00457 170  190 170 8650
180     -0.00322 170  340 170 13020
181      0.00478 170  190 170 8650
182     -0.00338 170  340 170 13020
183        0.005 170  190 170 8650
184     -0.00353 170  340 170 13020
185      0.00522 170  190 170 8650
186     -0.00368 170  340 170 13020
187      0.00544 170  190 170 8650
188     -0.00384 170  340 170 13020
189      0.00565 170  190 170 8650
190     -0.00399 170  340 170 13020
191      0.00587 170  190 170 8650
192     -0.00414 170  340 170 13020
193      0.00609 170  190 170 8650
194      -0.0043 170  340 170 13020
195      0.00631 170  190 170 8650
196     -0.00445 170  340 170 13020
197      0.00652 170  190 170 8650
198     -0.00461 170  340 170 13020
199      0.00674 170  190 170 8650
200     -0.00476 170  340 170 13020
201      0.00696 170  190 170 8650
202     -0.00491 170  340 170 13020
203      0.00718 170  190 170 8650
204     -0.00507 170  340 170 13020
205      0.00739 170  190 170 8650
206     -0.00522 170  340 170 13020
207      0.00761 170  190 170 8650
208     -0.00537 170  340 170 13020
209      0.00783 170  190 170 8650
210     -0.00553 170  340 170 13020
211      0.00805 170  190 170 8650
212     -0.00568 170  340 170 13020
213      0.00826 170  190 170 8650
214     -0.00583 170  340 170 13020
215      0.00848 170  190 170 8650
216     -0.00599 170  340 170 13020
217       0.0087 170  190 170 8650
218     -0.00614 170  340 170 13020
219      0.00892 170  190 170 8650
220     -0.00629 170  340 170 13020
221      0.00913 170  190 170 8650
222     -0.00645 170  340 170 13020
223      0.00935 170  190 170 8650
224      -0.0066 170  340 170 13020
225      0.00957 170  190 170 8650
226     -0.00675 170  340 170 13020
227      0.00979 170  190 170 8650
228     -0.00691 170  340 170 13020
229         0.01 170  190 170 8650
230     -0.00706 170  340 170 13020
231      0.01022 170  190 170 8650
232     -0.00722 170  340 170 13020
233      0.01044 170  190 170 8650
234     -0.00737 170  340 170 13020
235      0.01066 170  190 170 8650
236     -0.00752 170  340 170 13020
237      0.01087 170  190 170 8650
238     -0.00768 170  340 170 13020
239      0.01109 170  190 170 8650
240     -0.00783 170  340 170 13020
241      0.01131 170  190 170 8650
242     -0.00798 170  340 170 13020
243      0.01153 170  190 170 8650
244     -0.00814 170  340 170 13020
245      0.01174 170  190 170 8650
246     -0.00829 170  340 170 13020
247      0.01196 170  190 170 8650
248     -0.00844 170  340 170 13020
249      0.01218 170  190 170 8650
250      -0.0086 170  340 170 13020
251       0.0124 170  190 170 8650
252     -0.00875 170  340 170 13020
253      0.01261 170  190 170 8650
254      -0.0089 170  340 170 13020
255      0.01283 170  190 170 8650
256     -0.00906 170  340 170 13020
257      0.01305 170  190 170 8650
258     -0.00921 170  340 170 13020
259      0.01327 170  190 170 8650
260     -0.00936 170  340 170 13020
261      0.01348 170  190 170 8650
262     -0.00952 170  340 170 13020
263       0.0137 170  190 170 8650
264     -0.00967 170  340 170 13020

# Format of ADC events:
# id num dwell delay freq phase
# ..  ..    ns    us   Hz   rad
[ADC]
1 256 15000000000 9180 0 39.2699
2 256 15000000000 9180 0 47.9966
3 256 15000000000 9180 0 57.5959
4 256 15000000000 9180 0 68.0678
5 256 15000000000 9180 0 79.4125
6 256 15000000000 9180 0 91.6298
7 256 15000000000 9180 0 104.72
8 256 15000000000 9180 0 118.682
9 256 15000000000 9180 0 133.518
10 256 15000000000 9180 0 149.226
11 256 15000000000 9180 0 165.806
12 256 15000000000 9180 0 183.26
13 256 15000000000 9180 0 201.586
14 256 15000000000 9180 0 220.784
15 256 15000000000 9180 0 240.855
16 256 15000000000 9180 0 261.799
17 256 15000000000 9180 0 283.616
18 256 15000000000 9180 0 306.305
19 256 15000000000 9180 0 329.867
20 256 15000000000 9180 0 354.302
21 256 15000000000 9180 0 379.609
22 256 15000000000 9180 0 405.789
23 256 15000000000 9180 0 432.842
24 256 15000000000 9180 0 460.767
25 256 15000000000 9180 0 489.565
26 256 15000000000 9180 0 519.235
27 256 15000000000 9180 0 549.779
28 256 15000000000 9180 0 581.195
29 256 15000000000 9180 0 613.483
30 256 15000000000 9180 0 646.644
31 256 15000000000 9180 0 680.678
32 256 15000000000 9180 0 715.585
33 256 15000000000 9180 0 751.364
34 256 15000000000 9180 0 788.016
35 256 15000000000 9180 0 825.541
36 256 15000000000 9180 0 863.938
37 256 15000000000 9180 0 903.208
38 256 15000000000 9180 0 943.35
39 256 15000000000 9180 0 984.366
40 256 15000000000 9180 0 1026.25
41 256 15000000000 9180 0 1069.01
42 256 15000000000 9180 0 1112.65
43 256 15000000000 9180 0 1157.15
44 256 15000000000 9180 0 1202.53
45 256 15000000000 9180 0 1248.78
46 256 15000000000 9180 0 1295.91
47 256 15000000000 9180 0 1343.9
48 256 15000000000 9180 0 1392.77
49 256 15000000000 9180 0 1442.51
50 256 15000000000 9180 0 1493.13
51 256 15000000000 9180 0 1544.62
52 256 15000000000 9180 0 1596.98
53 256 15000000000 9180 0 1650.21
54 256 15000000000 9180 0 1704.31
55 256 15000000000 9180 0 1759.29
56 256 15000000000 9180 0 1815.14
57 256 15000000000 9180 0 1871.87
58 256 15000000000 9180 0 1929.46
59 256 15000000000 9180 0 1987.93
60 256 15000000000 9180 0 2047.27
61 256 15000000000 9180 0 2107.49
62 256 15000000000 9180 0 2168.57
63 256 15000000000 9180 0 2230.53
64 256 15000000000 9180 0 2293.36
65 256 15000000000 9180 0 2357.07
66 256 15000000000 9180 0 2421.64
67 256 15000000000 9180 0 2487.09
68 256 15000000000 9180 0 2553.42
69 256 15000000000 9180 0 2620.61
70 256 15000000000 9180 0 2688.68
71 256 15000000000 9180 0 2757.62
72 256 15000000000 9180 0 2827.43
73 256 15000000000 9180 0 2898.12
74 256 15000000000 9180 0 2969.68
75 256 15000000000 9180 0 3042.11
76 256 15000000000 9180 0 3115.41
77 256 15000000000 9180 0 3189.59
78 256 15000000000 9180 0 3264.64
79 256 15000000000 9180 0 3340.56
80 256 15000000000 9180 0 3417.35
81 256 15000000000 9180 0 3495.02
82 256 15000000000 9180 0 3573.56
83 256 15000000000 9180 0 3652.97
84 256 15000000000 9180 0 3733.26
85 256 15000000000 9180 0 3814.42
86 256 15000000000 9180 0 3896.45
87 256 15000000000 9180 0 3979.35
88 256 15000000000 9180 0 4063.13
89 256 15000000000 9180 0 4147.77
90 256 15000000000 9180 0 4233.3
91 256 15000000000 9180 0 4319.69
92 256 15000000000 9180 0 4406.96
93 256 15000000000 9180 0 4495.1
94 256 15000000000 9180 0 4584.11
95 256 15000000000 9180 0 4673.99
96 256 15000000000 9180 0 4764.75
97 256 15000000000 9180 0 4856.38
98 256 15000000000 9180 0 4948.88
99 256 15000000000 9180 0 5042.26
100 256 15000000000 9180 0 5136.5
101 256 15000000000 9180 0 5231.62
102 256 15000000000 9180 0 5327.62
103 256 15000000000 9180 0 5424.48
104 256 15000000000 9180 0 5522.22
105 256 15000000000 9180 0 5620.83
106 256 15000000000 9180 0 5720.32
107 256 15000000000 9180 0 5820.67
108 256 15000000000 9180 0 5921.9
109 256 15000000000 9180 0 6024
110 256 15000000000 9180 0 6126.98
111 256 15000000000 9180 0 6230.83
112 256 15000000000 9180 0 52.3599
113 256 15000000000 9180 0 157.952
114 256 15000000000 9180 0 264.417
115 256 15000000000 9180 0 371.755
116 256 15000000000 9180 0 479.966
117 256 15000000000 9180 0 589.049
118 256 15000000000 9180 0 699.004
119 256 15000000000 9180 0 809.833
120 256 15000000000 9180 0 921.534
121 256 15000000000 9180 0 1034.11
122 256 15000000000 9180 0 1147.55
123 256 15000000000 9180 0 1261.87
124 256 15000000000 9180 0 1377.06
125 256 15000000000 9180 0 1610.07
126 256 15000000000 9180 0 1727.88
127 256 15000000000 9180 0 1846.56

# Sequence Shapes
[SHAPES]

shape_id 1
num_samples 2000
0
0
74
0.0003828
0.0004506
0.0004505
0.0004506
0.0004506
0
7.22e-05
0
0
27
0.0003512
0.0004506
0.0004506
0
0.0004505
0.0004506
0.0001039
0
0
32
0.000315
0.0004506
0.0004506
0
0.0004505
0.0004506
0.00014
0
0
42
-0.0002699
-0.0004505
-0.0004506
-0.0004506
0
-0.0004505
-0.0001852
0
0
22
-0.0002428
-0.0004506
-0.0004505
-0.0004506
-0.0004506
0
-0.0002123
0
0
7
-0.0002292
-0.0004506
-0.0004505
-0.0004506
-0.0004506
0
-0.0002258
0
0
12
0.0002112
0.0004505
0.0004506
0.0004506
0
0.0004505
0.0002439
0
0
2
0.0002022
0.0004505
0.0004506
0.0004506
0
0.0004505
0.0004506
0.0004506
0
0.0004505
0.0004506
0.0004506
0
0.0002574
0
0
2
0.0001886
0.0004506
0.0004505
0.0004506
0.0004506
0
0.0004505
0.0004506
0.0004506
0
0.0004505
0.0004506
0.0004506
0
0.0004505
0.0004506
0.0004506
0
0.0004505
0.0002755
0
0
2
0.0001706
0.0004505
0.0004506
0.0004506
0
0.0004505
0.0004506
0.0004506
0
0.0004505
0.0004506
0.0004505
0.0004506
0.0004506
0
0.0004505
0.0004506
0.0004506
0
0.0004505
0.0004506
0.0004506
0
0.0004505
0.0004506
0.0004506
0
0.0004505
0.0004506
0.0004506
0
0.0004505
0.0007464
0.0013517
0.0013517
2
0.0010649
0.0004506
0.0004505
0.0004506
0.0004506
0
0.0004505
0.0004506
0.0004505
0.0004506
0.0004506
0
0.0004505
0.0004506
0.0004506
0
0.0004505
0.0004506
0.0007103
0.0013517
0.0013517
2
0.001101
0.0004505
0.0004506
0.0004506
0
0.0004505
0.0004506
0.0004506
0
0.0004505
0.0004506
0.0004506
0
0.0004505
0.0004506
0.0004506
0
0.0004505
0.0004506
0.0006741
0.0013517
0.0013517
2
0.0012444
0.0009012
0.0009011
0.0009011
0
0.0009012
0.0007983
0.0004506
0.0004506
0
0.0004505
0.0004506
0.0004505
0.0004506
0.0004506
0
0.0004505
0.0004506
0.0007317
0.0018023
0.0018023
0
0.0018022
0.0018023
0.0016238
0.0009012
0.0009011
0.0009011
1
0.0008165
0.0004505
0.0004506
0.0004506
0
0.0004505
0.0004506
0.0004506
0
0.0004505
0.0004506
0.0004506
0
0.0007532
0.0022528
0.0022528
1
0.0022529
0.0020394
0.0009011
0.0009011
0
0.0009012
0.0009011
0.0009011
1
0.0009012
0.0009011
0.0009011
0
0.0009012
0.0009011
0.0009011
0
0.0009012
0.0009011
0.0010163
0.0018023
0.0018022
0.0018023
0.0018022
0.0016961
0.0009012
0.0009011
0.0009011
0
0.0009012
0.0009011
0.0009011
0
0.0009012
0.0009011
0.0009011
1
0.0009012
0.0009011
0.0009011
0
0.0009012
0.0010197
0.0022528
0.0022528
1
0.0022529
0.0021828
0.0013517
0.0013517
1
0.0013516
0.0013213
0.0009011
0.0009011
1
0.0009012
0.0009011
0.0009011
0
0.0009012
0.0009011
0.0009011
0
0.000987
0.0027034
0.0027034
0
0.0027033
0.0027034
0.0026357
0.0009011
0.0009011
0
0.0009012
0.0009011
0.0009011
1
0.0009012
0.0009011
0.0009011
0
0.0009012
0.0009011
0.0009011
0
0.0009012
0.0009011
0.0009181
0.0031539
0.003154
0.0031539
0.003154
0.0031539
0.0013562
0.0013517
0.0013517
7
0.0009113
0.0009011
0.0009011
0
0.0009012
0.0009011
0.0026447
0.0027034
0.0027033
0.0027034
0.0027034
0
0.0014093
0.0013517
0.0013517
9
0.0013516
0.0013517
0.0013517
0
0.003023
0.003154
0.0031539
0.003154
0.0031539
0.0015008
0.0013517
0.0013517
2
0.0013516
0.0013517
0.0013517
7
0.0029507
0.0031539
0.003154
0.003154
0
0.0031539
0.001573
0.0013517
0.0013517
12
0.0032601
0.0036045
0.0036045
2
0.0017187
0.0013517
0.0013517
7
0.0020879
0.0022529
0.0022528
0.0022528
1
0.0029801
0.0031539
0.003154
0.003154
0
0.0031539
0.0017176
0.0013517
0.0013517
3
0.0013516
0.0013517
0.0013517
1
0.0020518
0.0022529
0.0022528
0.0022528
1
0.002944
0.0031539
0.003154
0.0031539
0.003154
0.0021308
0.0018023
0.0018023
0
0.0018022
0.0018023
0.0018022
0.0018023
0.0018023
0
0.0018022
0.0018023
0.0014702
0.0013517
0.0013517
2
0.0029891
0.0036045
0.0036046
0.0036045
0.0036045
0
0.0023127
0.0018022
0.0018023
0.0018022
0.0018023
0.0018023
0
0.0018022
0.0018023
0.0018022
0.0018023
0.0014883
0.0013517
0.0013517
2
0.0028988
0.0036045
0.0036045
2
0.002385
0.0018022
0.0018023
0.0018023
0
0.0018022
0.0018023
0.0018022
0.0018023
0.0018023
0
0.0018022
0.0018023
0.0018022
0.0018023
0.0018023
0
0.0018022
0.0026763
0.003154
0.0031539
0.003154
0.0031539
0.0022935
0.0018023
0.0018022
0.0018023
0.0018022
0.0018023
0.0018023
0
0.0018022
0.0018023
0.0018022
0.0018023
0.0018023
0
0.0018022
0.0018023
0.0018022
0.0028954
0.0036045
0.0036045
1
0.0036046
0.0022607
0.0013517
0.0013517
6
0.0013516
0.0018712
0.0022528
0.0022528
0
0.0022529
0.0022528
0.0030184
0.0036046
0.0036045
0.0036045
1
0.0023511
0.0013517
0.0013517
3
0.0013516
0.0013517
0.0013517
1
0.001835
0.0022529
0.0022528
0.0022528
1
0.0027271
0.003154
0.003154
0
0.0031539
0.003154
0.002456
0.0018023
0.0018023
0
0.0018022
0.0018023
0.0018022
0.0018023
0.0018023
0
0.0018022
0.0018023
0.0015787
0.0013516
0.0013517
0.0013517
1
0.002228
0.003154
0.0031539
0.003154
0.0031539
0.0025103
0.0018023
0.0018022
0.0018023
0.0018023
0
0.0015922
0.0013517
0.0013517
3
0.0013516
0.0013517
0.0013517
1
0.0023567
0.0036046
0.0036045
0.0036045
1
0.0026221
0.0013517
0.0013517
9
0.0013516
0.0013517
0.0013517
0
0.0020835
0.0031539
0.003154
0.0031539
0.003154
0.0026187
0.0018022
0.0018023
0.0018023
0
0.0018022
0.0016284
0.0013517
0.0013517
4
0.0013516
0.0013517
0.0013517
0
0.0018463
0.0027034
0.0027034
2
0.0022223
0.0013517
0.0013517
12
0.0016453
0.0022528
0.0022528
2
0.0019683
0.0013517
0.0013517
7
0.0012184
0.0009011
0.0009012
0.0009011
0.0009011
0
0.0012874
0.0022528
0.0022528
2
0.0020044
0.0013517
0.0013517
2
0.001232
0.0009011
0.0009012
0.0009011
0.0009011
0
0.0009012
0.0009011
0.0009011
0
0.0009012
0.0009011
0.0012331
0.0022528
0.0022529
0.0022528
0.0022528
0
0.0019344
0.0009011
0.0009011
0
0.0009012
0.0009011
0.0009011
0
0.0009012
0.0009011
0.0009011
0
0.0009012
0.0009011
0.0009011
1
0.0009012
0.0009011
0.0010863
0.0018023
0.0018022
0.0018023
0.0018023
0
0.0016261
0.0009011
0.0009011
0
0.0009012
0.0009011
0.0008176
0.0004505
0.0004506
0.0004505
0.0004506
0.0004506
0
0.0004505
0.0004506
0.0004506
0
0.0004505
0.0006742
0.0018022
0.0018023
0.0018023
0
0.0018022
0.0015922
0.0004506
0.0004506
0
0.0004505
0.0004506
0.0004506
0
0.0004505
0.0004506
0.0004506
0
0.0004505
0.0004506
0.0004506
0
0.0004505
0.0004506
0.0004506
0
0.0005634
0.0013517
0.0013517
2
0.0012478
0.0004506
0.0004506
0
0.0004505
0.0004506
0.0004506
0
0.0004505
0.0004506
0.0004505
0.0004506
0.0004506
0
0.0004505
0.0004506
0.0004506
0
0.0004505
0.0004506
0.0004506
0
0.0004505
0.0004506
0.0004506
0
0.0004505
0.0004506
0.0004506
0
0.0004505
0.0004506
0.0004506
0
0.0004505
0.0004506
0.0004505
0.0004506
0.0004506
0
0.0004505
0.0004506
0.0004506
0
0.0004505
0.0004506
0.0004506
0
0.0004505
0.0004506
0.0004506
0
0.0004347
0
0
12
2.3e-06
0.0004505
0.0004506
0.0004506
0
0.0004505
0.0004506
-0.000446
-0.0004506
-0.0004506
0
-0.0004505
-0.0004506
-6.8e-06
0
0
7
-0.0004347
-0.0004506
-0.0004506
0
-0.0004505
-0.0004506
-2.03e-05
0
0
2
-0.0004257
-0.0004506
-0.0004506
0
-0.0004505
-0.0004506
-2.94e-05
0
0
2
-0.0008333
-0.0009012
-0.0009011
-0.0009011
0
-0.0009012
-0.0004889
-0.0004506
-0.0004505
-0.0004506
-0.0004506
0
-0.0004505
-0.0004506
-0.0004506
0
-0.0004505
-0.0004506
-0.0004506
0
-0.0004505
-0.0004506
-0.0004506
0
-0.0004505
-0.0004506
-0.0004506
0
-0.0004505
-0.0004506
-0.0004506
0
-0.0004505
-0.0004506
-0.0004505
-0.0004506
-0.0004506
0
-0.0004505
-0.0004506
-0.0004506
0
-0.0004505
-0.0004506
-0.0012207
-0.0013517
-0.0013517
7
-0.0005996
-0.0004505
-0.0004506
-0.0004506
0
-0.0004505
-0.0004506
-0.0004506
0
-0.0004505
-0.0004506
-0.0004506
0
-0.0004505
-0.0004506
-0.0004506
0
-0.0004505
-0.0004506
-0.0019005
-0.0022528
-0.0022528
0
-0.0022529
-0.0022528
-0.0011789
-0.0009011
-0.0009012
-0.0009011
-0.0009011
0
-0.0009012
-0.0009011
-0.0009011
0
-0.0009012
-0.0009011
-0.0009011
1
-0.0009012
-0.0009011
-0.0009011
0
-0.00159
-0.0018023
-0.0018022
-0.0018023
-0.0018022
-0.0014624
-0.0013517
-0.0013517
2
-0.0010163
-0.0009011
-0.0009011
0
-0.0009012
-0.0009011
-0.0009011
0
-0.0009012
-0.0009011
-0.0009011
0
-0.0009012
-0.0018801
-0.0022529
-0.0022528
-0.0022528
1
-0.0016092
-0.0013517
-0.0013517
2
-0.0010343
-0.0009012
