# Pulseq sequence file
# Created by PyPulseq

[VERSION]
major 1
minor 4
revision 2

[DEFINITIONS]
AdcRasterTime 1e-07 
BlockDurationRaster 1e-05 
GradientRasterTime 1e-05 
Name MiniFLASH.seq 
RadiofrequencyRasterTime 5e-06 
TotalDuration 2.56 

# Format of blocks:
# NUM DUR RF  GX  GY  GZ  ADC  EXT
[BLOCKS]
  1 314   1   3   2   1  0  1
  2 1054   0   4   5   6  1  0
  3 946   2   9   8   7  0  2
  4 1054   0   4  10   6  2  0
  5 946   3   9  11   7  0  2
  6 1054   0   4  12   6  3  0
  7 946   4   9  13   7  0  2
  8 1054   0   4  14   6  4  0
  9 946   5   9  15   7  0  2
 10 1054   0   4  16   6  5  0
 11 946   6   9  17   7  0  2
 12 1054   0   4  18   6  6  0
 13 946   7   9  19   7  0  2
 14 1054   0   4  20   6  7  0
 15 946   8   9  21   7  0  2
 16 1054   0   4  22   6  8  0
 17 946   9   9  23   7  0  2
 18 1054   0   4  24   6  9  0
 19 946  10   9  25   7  0  2
 20 1054   0   4  26   6 10  0
 21 946  11   9  27   7  0  2
 22 1054   0   4  28   6 11  0
 23 946  12   9  29   7  0  2
 24 1054   0   4  30   6 12  0
 25 946  13   9  31   7  0  2
 26 1054   0   4  32   6 13  0
 27 946  14   9  33   7  0  2
 28 1054   0   4  34   6 14  0
 29 946  15   9  35   7  0  2
 30 1054   0   4  36   6 15  0
 31 946  16   9  37   7  0  2
 32 1054   0   4  38   6 16  0
 33 946  17   9  39   7  0  2
 34 1054   0   4  40   6 17  0
 35 946  18   9  41   7  0  2
 36 1054   0   4  42   6 18  0
 37 946  19   9  43   7  0  2
 38 1054   0   4  44   6 19  0
 39 946  20   9  45   7  0  2
 40 1054   0   4  46   6 20  0
 41 946  21   9  47   7  0  2
 42 1054   0   4  48   6 21  0
 43 946  22   9  49   7  0  2
 44 1054   0   4  50   6 22  0
 45 946  23   9  51   7  0  2
 46 1054   0   4  52   6 23  0
 47 946  24   9  53   7  0  2
 48 1054   0   4  54   6 24  0
 49 946  25   9  55   7  0  2
 50 1054   0   4  56   6 25  0
 51 946  26   9  57   7  0  2
 52 1054   0   4  58   6 26  0
 53 946  27   9  59   7  0  2
 54 1054   0   4  60   6 27  0
 55 946  28   9  61   7  0  2
 56 1054   0   4  62   6 28  0
 57 946  29   9  63   7  0  2
 58 1054   0   4  64   6 29  0
 59 946  30   9  65   7  0  2
 60 1054   0   4  66   6 30  0
 61 946  31   9  67   7  0  2
 62 1054   0   4  68   6 31  0
 63 946  32   9  69   7  0  2
 64 1054   0   4  70   6 32  0
 65 946  33   9  71   7  0  2
 66 1054   0   4  72   6 33  0
 67 946  34   9  73   7  0  2
 68 1054   0   4  74   6 34  0
 69 946  35   9  75   7  0  2
 70 1054   0   4  76   6 35  0
 71 946  36   9  77   7  0  2
 72 1054   0   4  78   6 36  0
 73 946  37   9  79   7  0  2
 74 1054   0   4  80   6 37  0
 75 946  38   9  81   7  0  2
 76 1054   0   4  82   6 38  0
 77 946  39   9  83   7  0  2
 78 1054   0   4  84   6 39  0
 79 946  40   9  85   7  0  2
 80 1054   0   4  86   6 40  0
 81 946  41   9  87   7  0  2
 82 1054   0   4  88   6 41  0
 83 946  42   9  89   7  0  2
 84 1054   0   4  90   6 42  0
 85 946  43   9  91   7  0  2
 86 1054   0   4  92   6 43  0
 87 946  44   9  93   7  0  2
 88 1054   0   4  94   6 44  0
 89 946  45   9  95   7  0  2
 90 1054   0   4  96   6 45  0
 91 946  46   9  97   7  0  2
 92 1054   0   4  98   6 46  0
 93 946  47   9  99   7  0  2
 94 1054   0   4 100   6 47  0
 95 946  48   9 101   7  0  2
 96 1054   0   4 102   6 48  0
 97 946  49   9 103   7  0  2
 98 1054   0   4 104   6 49  0
 99 946  50   9 105   7  0  2
100 1054   0   4 106   6 50  0
101 946  51   9 107   7  0  2
102 1054   0   4 108   6 51  0
103 946  52   9 109   7  0  2
104 1054   0   4 110   6 52  0
105 946  53   9 111   7  0  2
106 1054   0   4 112   6 53  0
107 946  54   9 113   7  0  2
108 1054   0   4 114   6 54  0
109 946  55   9 115   7  0  2
110 1054   0   4 116   6 55  0
111 946  56   9 117   7  0  2
112 1054   0   4 118   6 56  0
113 946  57   9 119   7  0  2
114 1054   0   4 120   6 57  0
115 946  58   9 121   7  0  2
116 1054   0   4 122   6 58  0
117 946  59   9 123   7  0  2
118 1054   0   4 124   6 59  0
119 946  60   9 125   7  0  2
120 1054   0   4 126   6 60  0
121 946  61   9 127   7  0  2
122 1054   0   4 128   6 61  0
123 946  62   9 129   7  0  2
124 1054   0   4 130   6 62  0
125 946  63   9 131   7  0  2
126 1054   0   4 132   6 63  0
127 946  64   9 133   7  0  2
128 1054   0   4 134   6 64  0
129 946  65   9 135   7  0  2
130 1054   0   4 136   6 65  0
131 946  66   9 137   7  0  2
132 1054   0   4 138   6 66  0
133 946  67   9 139   7  0  2
134 1054   0   4 140   6 67  0
135 946  68   9 141   7  0  2
136 1054   0   4 142   6 68  0
137 946  69   9 143   7  0  2
138 1054   0   4 144   6 69  0
139 946  70   9 145   7  0  2
140 1054   0   4 146   6 70  0
141 946  71   9 147   7  0  2
142 1054   0   4 148   6 71  0
143 946  72   9 149   7  0  2
144 1054   0   4 150   6 72  0
145 946  73   9 151   7  0  2
146 1054   0   4 152   6 73  0
147 946  74   9 153   7  0  2
148 1054   0   4 154   6 74  0
149 946  75   9 155   7  0  2
150 1054   0   4 156   6 75  0
151 946  76   9 157   7  0  2
152 1054   0   4 158   6 76  0
153 946  77   9 159   7  0  2
154 1054   0   4 160   6 77  0
155 946  78   9 161   7  0  2
156 1054   0   4 162   6 78  0
157 946  79   9 163   7  0  2
158 1054   0   4 164   6 79  0
159 946  80   9 165   7  0  2
160 1054   0   4 166   6 80  0
161 946  81   9 167   7  0  2
162 1054   0   4 168   6 81  0
163 946  82   9 169   7  0  2
164 1054   0   4 170   6 82  0
165 946  83   9 171   7  0  2
166 1054   0   4 172   6 83  0
167 946  84   9 173   7  0  2
168 1054   0   4 174   6 84  0
169 946  85   9 175   7  0  2
170 1054   0   4 176   6 85  0
171 946  86   9 177   7  0  2
172 1054   0   4 178   6 86  0
173 946  87   9 179   7  0  2
174 1054   0   4 180   6 87  0
175 946  88   9 181   7  0  2
176 1054   0   4 182   6 88  0
177 946  89   9 183   7  0  2
178 1054   0   4 184   6 89  0
179 946  90   9 185   7  0  2
180 1054   0   4 186   6 90  0
181 946  91   9 187   7  0  2
182 1054   0   4 188   6 91  0
183 946  92   9 189   7  0  2
184 1054   0   4 190   6 92  0
185 946  93   9 191   7  0  2
186 1054   0   4 192   6 93  0
187 946  94   9 193   7  0  2
188 1054   0   4 194   6 94  0
189 946  95   9 195   7  0  2
190 1054   0   4 196   6 95  0
191 946  96   9 197   7  0  2
192 1054   0   4 198   6 96  0
193 946  97   9 199   7  0  2
194 1054   0   4 200   6 97  0
195 946  98   9 201   7  0  2
196 1054   0   4 202   6 98  0
197 946  99   9 203   7  0  2
198 1054   0   4 204   6 99  0
199 946 100   9 205   7  0  2
200 1054   0   4 206   6 100  0
201 946 101   9 207   7  0  2
202 1054   0   4 208   6 101  0
203 946 102   9 209   7  0  2
204 1054   0   4 210   6 102  0
205 946 103   9 211   7  0  2
206 1054   0   4 212   6 103  0
207 946 104   9 213   7  0  2
208 1054   0   4 214   6 104  0
209 946 105   9 215   7  0  2
210 1054   0   4 216   6 105  0
211 946 106   9 217   7  0  2
212 1054   0   4 218   6 106  0
213 946 107   9 219   7  0  2
214 1054   0   4 220   6 107  0
215 946 108   9 221   7  0  2
216 1054   0   4 222   6 108  0
217 946 109   9 223   7  0  2
218 1054   0   4 224   6 109  0
219 946 110   9 225   7  0  2
220 1054   0   4 226   6 110  0
221 946 111   9 227   7  0  2
222 1054   0   4 228   6 111  0
223 946 112   9 229   7  0  2
224 1054   0   4 230   6 112  0
225 946 113   9 231   7  0  2
226 1054   0   4 232   6 113  0
227 946 114   9 233   7  0  2
228 1054   0   4 234   6 114  0
229 946 115   9 235   7  0  2
230 1054   0   4 236   6 115  0
231 946 116   9 237   7  0  2
232 1054   0   4 238   6 116  0
233 946 117   9 239   7  0  2
234 1054   0   4 240   6 117  0
235 946 118   9 241   7  0  2
236 1054   0   4 242   6 118  0
237 946 119   9 243   7  0  2
238 1054   0   4 244   6 119  0
239 946 120   9 245   7  0  2
240 1054   0   4 246   6 120  0
241 946 121   9 247   7  0  2
242 1054   0   4 248   6 121  0
243 946 122   9 249   7  0  2
244 1054   0   4 250   6 122  0
245 946 123   9 251   7  0  2
246 1054   0   4 252   6 123  0
247 946 124   9 253   7  0  2
248 1054   0   4 254   6 124  0
249 946 125   9 255   7  0  2
250 1054   0   4 256   6 125  0
251 946 126   9 257   7  0  2
252 1054   0   4 258   6 126  0
253 946 127   9 259   7  0  2
254 1054   0   4 260   6 127  0
255 946 128   9 261   7  0  2
256 1686   0   4 262   6 128  0

# Format of RF events:
# id amplitude mag_id phase_id time_shape_id delay freq phase
# ..        Hz   ....     ....          ....    us   Hz   rad
[RF]
1      46.3027 2 3 0 100 0 13.09
2      46.3027 2 3 0 6420 0 18.326
3      46.3027 2 3 0 6420 0 24.4346
4      46.3027 2 3 0 6420 0 31.4159
5      46.3027 2 3 0 6420 0 39.2699
6      46.3027 2 3 0 6420 0 47.9966
7      46.3027 2 3 0 6420 0 57.5959
8      46.3027 2 3 0 6420 0 68.0678
9      46.3027 2 3 0 6420 0 79.4125
10      46.3027 2 3 0 6420 0 91.6298
11      46.3027 2 3 0 6420 0 104.72
12      46.3027 2 3 0 6420 0 118.682
13      46.3027 2 3 0 6420 0 133.518
14      46.3027 2 3 0 6420 0 149.226
15      46.3027 2 3 0 6420 0 165.806
16      46.3027 2 3 0 6420 0 183.26
17      46.3027 2 3 0 6420 0 201.586
18      46.3027 2 3 0 6420 0 220.784
19      46.3027 2 3 0 6420 0 240.855
20      46.3027 2 3 0 6420 0 261.799
21      46.3027 2 3 0 6420 0 283.616
22      46.3027 2 3 0 6420 0 306.305
23      46.3027 2 3 0 6420 0 329.867
24      46.3027 2 3 0 6420 0 354.302
25      46.3027 2 3 0 6420 0 379.609
26      46.3027 2 3 0 6420 0 405.789
27      46.3027 2 3 0 6420 0 432.842
28      46.3027 2 3 0 6420 0 460.767
29      46.3027 2 3 0 6420 0 489.565
30      46.3027 2 3 0 6420 0 519.235
31      46.3027 2 3 0 6420 0 549.779
32      46.3027 2 3 0 6420 0 581.195
33      46.3027 2 3 0 6420 0 613.483
34      46.3027 2 3 0 6420 0 646.644
35      46.3027 2 3 0 6420 0 680.678
36      46.3027 2 3 0 6420 0 715.585
37      46.3027 2 3 0 6420 0 751.364
38      46.3027 2 3 0 6420 0 788.016
39      46.3027 2 3 0 6420 0 825.541
40      46.3027 2 3 0 6420 0 863.938
41      46.3027 2 3 0 6420 0 903.208
42      46.3027 2 3 0 6420 0 943.35
43      46.3027 2 3 0 6420 0 984.366
44      46.3027 2 3 0 6420 0 1026.25
45      46.3027 2 3 0 6420 0 1069.01
46      46.3027 2 3 0 6420 0 1112.65
47      46.3027 2 3 0 6420 0 1157.15
48      46.3027 2 3 0 6420 0 1202.53
49      46.3027 2 3 0 6420 0 1248.78
50      46.3027 2 3 0 6420 0 1295.91
51      46.3027 2 3 0 6420 0 1343.9
52      46.3027 2 3 0 6420 0 1392.77
53      46.3027 2 3 0 6420 0 1442.51
54      46.3027 2 3 0 6420 0 1493.13
55      46.3027 2 3 0 6420 0 1544.62
56      46.3027 2 3 0 6420 0 1596.98
57      46.3027 2 3 0 6420 0 1650.21
58      46.3027 2 3 0 6420 0 1704.31
59      46.3027 2 3 0 6420 0 1759.29
60      46.3027 2 3 0 6420 0 1815.14
61      46.3027 2 3 0 6420 0 1871.87
62      46.3027 2 3 0 6420 0 1929.46
63      46.3027 2 3 0 6420 0 1987.93
64      46.3027 2 3 0 6420 0 2047.27
65      46.3027 2 3 0 6420 0 2107.49
66      46.3027 2 3 0 6420 0 2168.57
67      46.3027 2 3 0 6420 0 2230.53
68      46.3027 2 3 0 6420 0 2293.36
69      46.3027 2 3 0 6420 0 2357.07
70      46.3027 2 3 0 6420 0 2421.64
71      46.3027 2 3 0 6420 0 2487.09
72      46.3027 2 3 0 6420 0 2553.42
73      46.3027 2 3 0 6420 0 2620.61
74      46.3027 2 3 0 6420 0 2688.68
75      46.3027 2 3 0 6420 0 2757.62
76      46.3027 2 3 0 6420 0 2827.43
77      46.3027 2 3 0 6420 0 2898.12
78      46.3027 2 3 0 6420 0 2969.68
79      46.3027 2 3 0 6420 0 3042.11
80      46.3027 2 3 0 6420 0 3115.41
81      46.3027 2 3 0 6420 0 3189.59
82      46.3027 2 3 0 6420 0 3264.64
83      46.3027 2 3 0 6420 0 3340.56
84      46.3027 2 3 0 6420 0 3417.35
85      46.3027 2 3 0 6420 0 3495.02
86      46.3027 2 3 0 6420 0 3573.56
87      46.3027 2 3 0 6420 0 3652.97
88      46.3027 2 3 0 6420 0 3733.26
89      46.3027 2 3 0 6420 0 3814.42
90      46.3027 2 3 0 6420 0 3896.45
91      46.3027 2 3 0 6420 0 3979.35
92      46.3027 2 3 0 6420 0 4063.13
93      46.3027 2 3 0 6420 0 4147.77
94      46.3027 2 3 0 6420 0 4233.3
95      46.3027 2 3 0 6420 0 4319.69
96      46.3027 2 3 0 6420 0 4406.96
97      46.3027 2 3 0 6420 0 4495.1
98      46.3027 2 3 0 6420 0 4584.11
99      46.3027 2 3 0 6420 0 4673.99
100      46.3027 2 3 0 6420 0 4764.75
101      46.3027 2 3 0 6420 0 4856.38
102      46.3027 2 3 0 6420 0 4948.88
103      46.3027 2 3 0 6420 0 5042.26
104      46.3027 2 3 0 6420 0 5136.5
105      46.3027 2 3 0 6420 0 5231.62
106      46.3027 2 3 0 6420 0 5327.62
107      46.3027 2 3 0 6420 0 5424.48
108      46.3027 2 3 0 6420 0 5522.22
109      46.3027 2 3 0 6420 0 5620.83
110      46.3027 2 3 0 6420 0 5720.32
111      46.3027 2 3 0 6420 0 5820.67
112      46.3027 2 3 0 6420 0 5921.9
113      46.3027 2 3 0 6420 0 6024
114      46.3027 2 3 0 6420 0 6126.98
115      46.3027 2 3 0 6420 0 6230.83
116      46.3027 2 3 0 6420 0 52.3599
117      46.3027 2 3 0 6420 0 157.952
118      46.3027 2 3 0 6420 0 264.417
119      46.3027 2 3 0 6420 0 371.755
120      46.3027 2 3 0 6420 0 479.966
121      46.3027 2 3 0 6420 0 589.049
122      46.3027 2 3 0 6420 0 699.004
123      46.3027 2 3 0 6420 0 809.833
124      46.3027 2 3 0 6420 0 921.534
125      46.3027 2 3 0 6420 0 1034.11
126      46.3027 2 3 0 6420 0 1147.55
127      46.3027 2 3 0 6420 0 1261.87
128      46.3027 2 3 0 6420 0 1377.06

# Format of arbitrary gradients:
#   time_shape_id of 0 means default timing (stepping with grad_raster starting at 1/2 of grad_raster)
# id amplitude amp_shape_id time_shape_id delay
# ..      Hz/m       ..         ..          us
[GRADIENTS]
1 -1.43768e+06 1 0 0
7 -1.43768e+06 4 0 0

# Format of trapezoid gradients:
# id amplitude rise flat fall delay
# ..      Hz/m   us   us   us    us
[TRAP]
 2  1.33348e+06 160    0 160 2660
 3  1.34029e+06 160    0 160 2660
 4      -111123  20 3840  20 6300
 5 -1.33348e+06 160    0 160 10160
 6 -1.47654e+06 190    0 190 10160
 8  1.31262e+06 160    0 160 8980
 9  1.34029e+06 160    0 160 8980
10 -1.31262e+06 160    0 160 10160
11  1.29176e+06 160    0 160 8980
12 -1.29176e+06 160    0 160 10160
13  1.27089e+06 160    0 160 8980
14 -1.27089e+06 160    0 160 10160
15  1.25003e+06 160    0 160 8980
16 -1.25003e+06 160    0 160 10160
17  1.22917e+06 160    0 160 8980
18 -1.22917e+06 160    0 160 10160
19  1.20831e+06 160    0 160 8980
20 -1.20831e+06 160    0 160 10160
21  1.18744e+06 160    0 160 8980
22 -1.18744e+06 160    0 160 10160
23  1.16658e+06 160    0 160 8980
24 -1.16658e+06 160    0 160 10160
25  1.14572e+06 160    0 160 8980
26 -1.14572e+06 160    0 160 10160
27  1.12486e+06 160    0 160 8980
28 -1.12486e+06 160    0 160 10160
29    1.104e+06 160    0 160 8980
30   -1.104e+06 160    0 160 10160
31  1.08313e+06 160    0 160 8980
32 -1.08313e+06 160    0 160 10160
33   1.0627e+06 160    0 160 8980
34  -1.0627e+06 160    0 160 10160
35  1.04183e+06 160    0 160 8980
36 -1.04183e+06 160    0 160 10160
37  1.02097e+06 160    0 160 8980
38 -1.02097e+06 160    0 160 10160
39  1.00011e+06 160    0 160 8980
40 -1.00011e+06 160    0 160 10160
41       979248 160    0 160 8980
42      -979248 160    0 160 10160
43       958386 160    0 160 8980
44      -958386 160    0 160 10160
45       937524 160    0 160 8980
46      -937524 160    0 160 10160
47       916661 160    0 160 8980
48      -916661 160    0 160 10160
49       895799 160    0 160 8980
50      -895799 160    0 160 10160
51       874937 160    0 160 8980
52      -874937 160    0 160 10160
53       854075 160    0 160 8980
54      -854075 160    0 160 10160
55       833212 160    0 160 8980
56      -833212 160    0 160 10160
57       812350 160    0 160 8980
58      -812350 160    0 160 10160
59       791488 160    0 160 8980
60      -791488 160    0 160 10160
61       771051 160    0 160 8980
62      -771051 160    0 160 10160
63       750189 160    0 160 8980
64      -750189 160    0 160 10160
65       729327 160    0 160 8980
66      -729327 160    0 160 10160
67       708465 160    0 160 8980
68      -708465 160    0 160 10160
69       687602 160    0 160 8980
70      -687602 160    0 160 10160
71       666740 160    0 160 8980
72      -666740 160    0 160 10160
73       645878 160    0 160 8980
74      -645878 160    0 160 10160
75       625016 160    0 160 8980
76      -625016 160    0 160 10160
77       604153 160    0 160 8980
78      -604153 160    0 160 10160
79       583291 160    0 160 8980
80      -583291 160    0 160 10160
81       562429 160    0 160 8980
82      -562429 160    0 160 10160
83       541567 160    0 160 8980
84      -541567 160    0 160 10160
85       520704 160    0 160 8980
86      -520704 160    0 160 10160
87       499842 160    0 160 8980
88      -499842 160    0 160 10160
89       478980 160    0 160 8980
90      -478980 160    0 160 10160
91       458544 160    0 160 8980
92      -458544 160    0 160 10160
93       437681 160    0 160 8980
94      -437681 160    0 160 10160
95       416819 160    0 160 8980
96      -416819 160    0 160 10160
97       395957 160    0 160 8980
98      -395957 160    0 160 10160
99       375095 160    0 160 8980
100      -375095 160    0 160 10160
101       354232 160    0 160 8980
102      -354232 160    0 160 10160
103       333370 160    0 160 8980
104      -333370 160    0 160 10160
105       312508 160    0 160 8980
106      -312508 160    0 160 10160
107       291646 160    0 160 8980
108      -291646 160    0 160 10160
109       270783 160    0 160 8980
110      -270783 160    0 160 10160
111       249921 160    0 160 8980
112      -249921 160    0 160 10160
113       229059 160    0 160 8980
114      -229059 160    0 160 10160
115       208197 160    0 160 8980
116      -208197 160    0 160 10160
117       187334 160    0 160 8980
118      -187334 160    0 160 10160
119       166472 160    0 160 8980
120      -166472 160    0 160 10160
121       146036 160    0 160 8980
122      -146036 160    0 160 10160
123       125173 160    0 160 8980
124      -125173 160    0 160 10160
125       104311 160    0 160 8980
126      -104311 160    0 160 10160
127        83449 160    0 160 8980
128       -83449 160    0 160 10160
129      62586.7 160    0 160 8980
130     -62586.7 160    0 160 10160
131      41724.5 160    0 160 8980
132     -41724.5 160    0 160 10160
133      20862.2 160    0 160 8980
134     -20862.2 160    0 160 10160
135           -0 160    0 160 8980
136           -0 160    0 160 10160
137     -20862.2 160    0 160 8980
138      20862.2 160    0 160 10160
139     -41724.5 160    0 160 8980
140      41724.5 160    0 160 10160
141     -62586.7 160    0 160 8980
142      62586.7 160    0 160 10160
143       -83449 160    0 160 8980
144        83449 160    0 160 10160
145      -104311 160    0 160 8980
146       104311 160    0 160 10160
147      -125173 160    0 160 8980
148       125173 160    0 160 10160
149      -146036 160    0 160 8980
150       146036 160    0 160 10160
151      -166472 160    0 160 8980
152       166472 160    0 160 10160
153      -187334 160    0 160 8980
154       187334 160    0 160 10160
155      -208197 160    0 160 8980
156       208197 160    0 160 10160
157      -229059 160    0 160 8980
158       229059 160    0 160 10160
159      -249921 160    0 160 8980
160       249921 160    0 160 10160
161      -270783 160    0 160 8980
162       270783 160    0 160 10160
163      -291646 160    0 160 8980
164       291646 160    0 160 10160
165      -312508 160    0 160 8980
166       312508 160    0 160 10160
167      -333370 160    0 160 8980
168       333370 160    0 160 10160
169      -354232 160    0 160 8980
170       354232 160    0 160 10160
171      -375095 160    0 160 8980
172       375095 160    0 160 10160
173      -395957 160    0 160 8980
174       395957 160    0 160 10160
175      -416819 160    0 160 8980
176       416819 160    0 160 10160
177      -437681 160    0 160 8980
178       437681 160    0 160 10160
179      -458544 160    0 160 8980
180       458544 160    0 160 10160
181      -478980 160    0 160 8980
182       478980 160    0 160 10160
183      -499842 160    0 160 8980
184       499842 160    0 160 10160
185      -520704 160    0 160 8980
186       520704 160    0 160 10160
187      -541567 160    0 160 8980
188       541567 160    0 160 10160
189      -562429 160    0 160 8980
190       562429 160    0 160 10160
191      -583291 160    0 160 8980
192       583291 160    0 160 10160
193      -604153 160    0 160 8980
194       604153 160    0 160 10160
195      -625016 160    0 160 8980
196       625016 160    0 160 10160
197      -645878 160    0 160 8980
198       645878 160    0 160 10160
199      -666740 160    0 160 8980
200       666740 160    0 160 10160
201      -687602 160    0 160 8980
202       687602 160    0 160 10160
203      -708465 160    0 160 8980
204       708465 160    0 160 10160
205      -729327 160    0 160 8980
206       729327 160    0 160 10160
207      -750189 160    0 160 8980
208       750189 160    0 160 10160
209      -771051 160    0 160 8980
210       771051 160    0 160 10160
211      -791488 160    0 160 8980
212       791488 160    0 160 10160
213      -812350 160    0 160 8980
214       812350 160    0 160 10160
215      -833212 160    0 160 8980
216       833212 160    0 160 10160
217      -854075 160    0 160 8980
218       854075 160    0 160 10160
219      -874937 160    0 160 8980
220       874937 160    0 160 10160
221      -895799 160    0 160 8980
222       895799 160    0 160 10160
223      -916661 160    0 160 8980
224       916661 160    0 160 10160
225      -937524 160    0 160 8980
226       937524 160    0 160 10160
227      -958386 160    0 160 8980
228       958386 160    0 160 10160
229      -979248 160    0 160 8980
230       979248 160    0 160 10160
231 -1.00011e+06 160    0 160 8980
232  1.00011e+06 160    0 160 10160
233 -1.02097e+06 160    0 160 8980
234  1.02097e+06 160    0 160 10160
235 -1.04183e+06 160    0 160 8980
236  1.04183e+06 160    0 160 10160
237  -1.0627e+06 160    0 160 8980
238   1.0627e+06 160    0 160 10160
239 -1.08313e+06 160    0 160 8980
240  1.08313e+06 160    0 160 10160
241   -1.104e+06 160    0 160 8980
242    1.104e+06 160    0 160 10160
243 -1.12486e+06 160    0 160 8980
244  1.12486e+06 160    0 160 10160
245 -1.14572e+06 160    0 160 8980
246  1.14572e+06 160    0 160 10160
247 -1.16658e+06 160    0 160 8980
248  1.16658e+06 160    0 160 10160
249 -1.18744e+06 160    0 160 8980
250  1.18744e+06 160    0 160 10160
251 -1.20831e+06 160    0 160 8980
252  1.20831e+06 160    0 160 10160
253 -1.22917e+06 160    0 160 8980
254  1.22917e+06 160    0 160 10160
255 -1.25003e+06 160    0 160 8980
256  1.25003e+06 160    0 160 10160
257 -1.27089e+06 160    0 160 8980
258  1.27089e+06 160    0 160 10160
259 -1.29176e+06 160    0 160 8980
260  1.29176e+06 160    0 160 10160
261 -1.31262e+06 160    0 160 8980
262  1.31262e+06 160    0 160 10160

# Format of ADC events:
# id num dwell delay freq phase
# ..  ..    ns    us   Hz   rad
[ADC]
1 256 15000 6320 0 13.09
2 256 15000 6320 0 18.326
3 256 15000 6320 0 24.4346
4 256 15000 6320 0 31.4159
5 256 15000 6320 0 39.2699
6 256 15000 6320 0 47.9966
7 256 15000 6320 0 57.5959
8 256 15000 6320 0 68.0678
9 256 15000 6320 0 79.4125
10 256 15000 6320 0 91.6298
11 256 15000 6320 0 104.72
12 256 15000 6320 0 118.682
13 256 15000 6320 0 133.518
14 256 15000 6320 0 149.226
15 256 15000 6320 0 165.806
16 256 15000 6320 0 183.26
17 256 15000 6320 0 201.586
18 256 15000 6320 0 220.784
19 256 15000 6320 0 240.855
20 256 15000 6320 0 261.799
21 256 15000 6320 0 283.616
22 256 15000 6320 0 306.305
23 256 15000 6320 0 329.867
24 256 15000 6320 0 354.302
25 256 15000 6320 0 379.609
26 256 15000 6320 0 405.789
27 256 15000 6320 0 432.842
28 256 15000 6320 0 460.767
29 256 15000 6320 0 489.565
30 256 15000 6320 0 519.235
31 256 15000 6320 0 549.779
32 256 15000 6320 0 581.195
33 256 15000 6320 0 613.483
34 256 15000 6320 0 646.644
35 256 15000 6320 0 680.678
36 256 15000 6320 0 715.585
37 256 15000 6320 0 751.364
38 256 15000 6320 0 788.016
39 256 15000 6320 0 825.541
40 256 15000 6320 0 863.938
41 256 15000 6320 0 903.208
42 256 15000 6320 0 943.35
43 256 15000 6320 0 984.366
44 256 15000 6320 0 1026.25
45 256 15000 6320 0 1069.01
46 256 15000 6320 0 1112.65
47 256 15000 6320 0 1157.15
48 256 15000 6320 0 1202.53
49 256 15000 6320 0 1248.78
50 256 15000 6320 0 1295.91
51 256 15000 6320 0 1343.9
52 256 15000 6320 0 1392.77
53 256 15000 6320 0 1442.51
54 256 15000 6320 0 1493.13
55 256 15000 6320 0 1544.62
56 256 15000 6320 0 1596.98
57 256 15000 6320 0 1650.21
58 256 15000 6320 0 1704.31
59 256 15000 6320 0 1759.29
60 256 15000 6320 0 1815.14
61 256 15000 6320 0 1871.87
62 256 15000 6320 0 1929.46
63 256 15000 6320 0 1987.93
64 256 15000 6320 0 2047.27
65 256 15000 6320 0 2107.49
66 256 15000 6320 0 2168.57
67 256 15000 6320 0 2230.53
68 256 15000 6320 0 2293.36
69 256 15000 6320 0 2357.07
70 256 15000 6320 0 2421.64
71 256 15000 6320 0 2487.09
72 256 15000 6320 0 2553.42
73 256 15000 6320 0 2620.61
74 256 15000 6320 0 2688.68
75 256 15000 6320 0 2757.62
76 256 15000 6320 0 2827.43
77 256 15000 6320 0 2898.12
78 256 15000 6320 0 2969.68
79 256 15000 6320 0 3042.11
80 256 15000 6320 0 3115.41
81 256 15000 6320 0 3189.59
82 256 15000 6320 0 3264.64
83 256 15000 6320 0 3340.56
84 256 15000 6320 0 3417.35
85 256 15000 6320 0 3495.02
86 256 15000 6320 0 3573.56
87 256 15000 6320 0 3652.97
88 256 15000 6320 0 3733.26
89 256 15000 6320 0 3814.42
90 256 15000 6320 0 3896.45
91 256 15000 6320 0 3979.35
92 256 15000 6320 0 4063.13
93 256 15000 6320 0 4147.77
94 256 15000 6320 0 4233.3
95 256 15000 6320 0 4319.69
96 256 15000 6320 0 4406.96
97 256 15000 6320 0 4495.1
98 256 15000 6320 0 4584.11
99 256 15000 6320 0 4673.99
100 256 15000 6320 0 4764.75
101 256 15000 6320 0 4856.38
102 256 15000 6320 0 4948.88
103 256 15000 6320 0 5042.26
104 256 15000 6320 0 5136.5
105 256 15000 6320 0 5231.62
106 256 15000 6320 0 5327.62
107 256 15000 6320 0 5424.48
108 256 15000 6320 0 5522.22
109 256 15000 6320 0 5620.83
110 256 15000 6320 0 5720.32
111 256 15000 6320 0 5820.67
112 256 15000 6320 0 5921.9
113 256 15000 6320 0 6024
114 256 15000 6320 0 6126.98
115 256 15000 6320 0 6230.83
116 256 15000 6320 0 52.3599
117 256 15000 6320 0 157.952
118 256 15000 6320 0 264.417
119 256 15000 6320 0 371.755
120 256 15000 6320 0 479.966
121 256 15000 6320 0 589.049
122 256 15000 6320 0 699.004
123 256 15000 6320 0 809.833
124 256 15000 6320 0 921.534
125 256 15000 6320 0 1034.11
126 256 15000 6320 0 1147.55
127 256 15000 6320 0 1261.87
128 256 15000 6320 0 1377.06

# Format of extension lists:
# id type ref next_id
# next_id of 0 terminates the list
# Extension list is followed by extension specifications
[EXTENSIONS]
1 1 1 0
2 1 2 0

# Extension specification for digital output and input triggers:
# id type channel delay (us) duration (us)
extension TRIGGERS 1
1 1 1 0 10
2 1 1 6320 10

# Sequence Shapes
[SHAPES]

shape_id 1
num_samples 314
0.0073296
0.0146591
0.0146591
1
0.0146592
0.0146591
0.0146591
2
0.0146592
0.0073295
0
0
253
-0.0073295
-0.0146592
-0.0146591
-0.0146591
2
-0.0146592
-0.0146591
-0.0146591
1
-0.0343566
-0.0540541
-0.054054
-0.0540541
-0.054054
-0.0540541
-0.0540541
0
-0.054054
-0.0540541
-0.054054
-0.0540541
-0.054054
-0.0540541
-0.054054
-0.0540541
-0.054054
-0.0540541
-0.054054
-0.0540541
0
0.0540541
0.054054
0.0540541
0.054054
0.0540541
0.054054
0.0540541
0.054054
0.0540541
0.054054
0.0540541
0.054054
0.0540541
0.0540541
0
0.054054
0.0540541
0.054054
0.0540541

shape_id 2
num_samples 512
0
0
30
0.0048309
0
0
21
-0.0048309
0
0
13
0.0048309
0
0
1
0.0048309
0
0
1
0.0096619
0
0
1
0.0048309
0
0
1
0.0096618
0
0
1
0.0144928
0
0
1
0.0096618
0
0
1
0.0144928
0
0
1
0.0144927
0
0
1
0.0193237
0
0
1
0.0144927
0
0
1
0.0241546
0
0
1
0.0193237
0
0
1
0.0241546
0
0
1
0.0241546
0
0
1
0.0241546
0
0
1
0.0289855
0
0
1
0.0289855
0
0
1
0.0289855
0
0
1
0.0289855
0
0
1
0.0338164
0
0
1
0.0289855
0
0
1
0.0338165
0
0
1
0.0338164
0
0
1
0.0338164
0
0
1
0.0338164
0
0
1
0.0338165
0
0
1
0.0338164
0
0
1
0.0338164
0
0
1
0.0338164
0
0
1
0.0338165
0
0
1
0.0289855
0
0
1
0.0289855
0
0
1
0.0289855
0
0
1
0.0289855
0
0
1
0.0241546
0
0
1
0.0241546
0
0
1
0.0241546
0
0
1
0.0193236
0
0
1
0.0193237
0
0
1
0.0144928
0
0
1
0.0144927
0
0
1
0.0096618
0
0
1
0.004831
0
0
1
0.0096618
0
0
13
-0.0096618
0
0
1
-0.004831
0
0
1
-0.0096618
0
0
1
-0.0144927
0
0
1
-0.0144928
0
0
1
-0.0193237
0
0
1
-0.0193236
0
0
1
-0.0241546
0
0
1
-0.0241546
0
0
1
-0.0241546
0
0
1
-0.0289855
0
0
1
-0.0289855
0
0
1
-0.0289855
0
0
1
-0.0289855
0
0
1
-0.0338165
0
0
1
-0.0338164
0
0
1
-0.0338164
0
0
1
-0.0338164
0
0
1
-0.0338165
0
0
1
-0.0338164
0
0
1
-0.0338164
0
0
1
-0.0338164
0
0
1
-0.0338165
0
0
1
-0.0289855
0
0
1
-0.0338164
0
0
1
-0.0289855
0
0
1
-0.0289855
0
0
1
-0.0289855
0
0
1
-0.0289855
0
0
1
-0.0241546
0
0
1
-0.0241546
0
0
1
-0.0241546
0
0
1
-0.0193237
0
0
1
-0.0241546
0
0
1
-0.0144927
0
0
1
-0.0193237
0
0
1
-0.0144927
0
0
1
-0.0144928
0
0
1
-0.0096618
0
0
1
-0.0144928
0
0
1
-0.0096618
0
0
1
-0.0048309
0
0
1
-0.0096619
0
0
1
-0.0048309
0
0
1
-0.0048309
0
0
13
0.0048309
0
0
21
-0.0048309
0
0
29

shape_id 3
num_samples 512
0
0
6
0.5
0
0
53
-0.5
0
0
381
0.5
0
0
53
-0.5
0
0
5

shape_id 4
num_samples 946
0
0
630
0.0073296
0.0146591
0.0146591
1
0.0146592
0.0146591
0.0146591
2
0.0146592
0.0073295
0
0
253
-0.0073295
-0.0146592
-0.0146591
-0.0146591
2
-0.0146592
-0.0146591
-0.0146591
1
-0.0343566
-0.0540541
-0.054054
-0.0540541
-0.054054
-0.0540541
-0.0540541
0
-0.054054
-0.0540541
-0.054054
-0.0540541
-0.054054
-0.0540541
-0.054054
-0.0540541
-0.054054
-0.0540541
-0.054054
-0.0540541
0
0.0540541
0.054054
0.0540541
0.054054
0.0540541
0.054054
0.0540541
0.054054
0.0540541
0.054054
0.0540541
0.054054
0.0540541
0.0540541
0
0.054054
0.0540541
0.054054
0.0540541


[SIGNATURE]
# This is the hash of the Pulseq file, calculated right before the [SIGNATURE] section was added
# It can be reproduced/verified with md5sum if the file trimmed to the position right above [SIGNATURE]
# The new line character preceding [SIGNATURE] BELONGS to the signature (and needs to be stripped away for recalculating/verification)
Type md5
Hash 025f78832f98a6273755bcda45be2b55
