# Pulseq sequence file
# Created by PyPulseq

[VERSION]
major 1
minor 4
revision 2

[DEFINITIONS]
AdcRasterTime 1e-07 
BlockDurationRaster 1e-05 
GradientRasterTime 1e-05 
Name MiniFLASH.seq 
RadiofrequencyRasterTime 5e-06 
TotalDuration 2.56 

# Format of blocks:
# NUM DUR RF  GX  GY  GZ  ADC  EXT
[BLOCKS]
  1   0   0   0   0   0  0  0
  2 314   1   1   2   3  0  1
  3 1054   0   4   5   6  1  0
  4 632   0   0   0   0  0  0
  5 314   2   1   7   3  0  1
  6 1054   0   4   8   6  2  0
  7 632   0   0   0   0  0  0
  8 314   3   1   9   3  0  1
  9 1054   0   4  10   6  3  0
 10 632   0   0   0   0  0  0
 11 314   4   1  11   3  0  1
 12 1054   0   4  12   6  4  0
 13 632   0   0   0   0  0  0
 14 314   5   1  13   3  0  1
 15 1054   0   4  14   6  5  0
 16 632   0   0   0   0  0  0
 17 314   6   1  15   3  0  1
 18 1054   0   4  16   6  6  0
 19 632   0   0   0   0  0  0
 20 314   7   1  17   3  0  1
 21 1054   0   4  18   6  7  0
 22 632   0   0   0   0  0  0
 23 314   8   1  19   3  0  1
 24 1054   0   4  20   6  8  0
 25 632   0   0   0   0  0  0
 26 314   9   1  21   3  0  1
 27 1054   0   4  22   6  9  0
 28 632   0   0   0   0  0  0
 29 314  10   1  23   3  0  1
 30 1054   0   4  24   6 10  0
 31 632   0   0   0   0  0  0
 32 314  11   1  25   3  0  1
 33 1054   0   4  26   6 11  0
 34 632   0   0   0   0  0  0
 35 314  12   1  27   3  0  1
 36 1054   0   4  28   6 12  0
 37 632   0   0   0   0  0  0
 38 314  13   1  29   3  0  1
 39 1054   0   4  30   6 13  0
 40 632   0   0   0   0  0  0
 41 314  14   1  31   3  0  1
 42 1054   0   4  32   6 14  0
 43 632   0   0   0   0  0  0
 44 314  15   1  33   3  0  1
 45 1054   0   4  34   6 15  0
 46 632   0   0   0   0  0  0
 47 314  16   1  35   3  0  1
 48 1054   0   4  36   6 16  0
 49 632   0   0   0   0  0  0
 50 314  17   1  37   3  0  1
 51 1054   0   4  38   6 17  0
 52 632   0   0   0   0  0  0
 53 314  18   1  39   3  0  1
 54 1054   0   4  40   6 18  0
 55 632   0   0   0   0  0  0
 56 314  19   1  41   3  0  1
 57 1054   0   4  42   6 19  0
 58 632   0   0   0   0  0  0
 59 314  20   1  43   3  0  1
 60 1054   0   4  44   6 20  0
 61 632   0   0   0   0  0  0
 62 314  21   1  45   3  0  1
 63 1054   0   4  46   6 21  0
 64 632   0   0   0   0  0  0
 65 314  22   1  47   3  0  1
 66 1054   0   4  48   6 22  0
 67 632   0   0   0   0  0  0
 68 314  23   1  49   3  0  1
 69 1054   0   4  50   6 23  0
 70 632   0   0   0   0  0  0
 71 314  24   1  51   3  0  1
 72 1054   0   4  52   6 24  0
 73 632   0   0   0   0  0  0
 74 314  25   1  53   3  0  1
 75 1054   0   4  54   6 25  0
 76 632   0   0   0   0  0  0
 77 314  26   1  55   3  0  1
 78 1054   0   4  56   6 26  0
 79 632   0   0   0   0  0  0
 80 314  27   1  57   3  0  1
 81 1054   0   4  58   6 27  0
 82 632   0   0   0   0  0  0
 83 314  28   1  59   3  0  1
 84 1054   0   4  60   6 28  0
 85 632   0   0   0   0  0  0
 86 314  29   1  61   3  0  1
 87 1054   0   4  62   6 29  0
 88 632   0   0   0   0  0  0
 89 314  30   1  63   3  0  1
 90 1054   0   4  64   6 30  0
 91 632   0   0   0   0  0  0
 92 314  31   1  65   3  0  1
 93 1054   0   4  66   6 31  0
 94 632   0   0   0   0  0  0
 95 314  32   1  67   3  0  1
 96 1054   0   4  68   6 32  0
 97 632   0   0   0   0  0  0
 98 314  33   1  69   3  0  1
 99 1054   0   4  70   6 33  0
100 632   0   0   0   0  0  0
101 314  34   1  71   3  0  1
102 1054   0   4  72   6 34  0
103 632   0   0   0   0  0  0
104 314  35   1  73   3  0  1
105 1054   0   4  74   6 35  0
106 632   0   0   0   0  0  0
107 314  36   1  75   3  0  1
108 1054   0   4  76   6 36  0
109 632   0   0   0   0  0  0
110 314  37   1  77   3  0  1
111 1054   0   4  78   6 37  0
112 632   0   0   0   0  0  0
113 314  38   1  79   3  0  1
114 1054   0   4  80   6 38  0
115 632   0   0   0   0  0  0
116 314  39   1  81   3  0  1
117 1054   0   4  82   6 39  0
118 632   0   0   0   0  0  0
119 314  40   1  83   3  0  1
120 1054   0   4  84   6 40  0
121 632   0   0   0   0  0  0
122 314  41   1  85   3  0  1
123 1054   0   4  86   6 41  0
124 632   0   0   0   0  0  0
125 314  42   1  87   3  0  1
126 1054   0   4  88   6 42  0
127 632   0   0   0   0  0  0
128 314  43   1  89   3  0  1
129 1054   0   4  90   6 43  0
130 632   0   0   0   0  0  0
131 314  44   1  91   3  0  1
132 1054   0   4  92   6 44  0
133 632   0   0   0   0  0  0
134 314  45   1  93   3  0  1
135 1054   0   4  94   6 45  0
136 632   0   0   0   0  0  0
137 314  46   1  95   3  0  1
138 1054   0   4  96   6 46  0
139 632   0   0   0   0  0  0
140 314  47   1  97   3  0  1
141 1054   0   4  98   6 47  0
142 632   0   0   0   0  0  0
143 314  48   1  99   3  0  1
144 1054   0   4 100   6 48  0
145 632   0   0   0   0  0  0
146 314  49   1 101   3  0  1
147 1054   0   4 102   6 49  0
148 632   0   0   0   0  0  0
149 314  50   1 103   3  0  1
150 1054   0   4 104   6 50  0
151 632   0   0   0   0  0  0
152 314  51   1 105   3  0  1
153 1054   0   4 106   6 51  0
154 632   0   0   0   0  0  0
155 314  52   1 107   3  0  1
156 1054   0   4 108   6 52  0
157 632   0   0   0   0  0  0
158 314  53   1 109   3  0  1
159 1054   0   4 110   6 53  0
160 632   0   0   0   0  0  0
161 314  54   1 111   3  0  1
162 1054   0   4 112   6 54  0
163 632   0   0   0   0  0  0
164 314  55   1 113   3  0  1
165 1054   0   4 114   6 55  0
166 632   0   0   0   0  0  0
167 314  56   1 115   3  0  1
168 1054   0   4 116   6 56  0
169 632   0   0   0   0  0  0
170 314  57   1 117   3  0  1
171 1054   0   4 118   6 57  0
172 632   0   0   0   0  0  0
173 314  58   1 119   3  0  1
174 1054   0   4 120   6 58  0
175 632   0   0   0   0  0  0
176 314  59   1 121   3  0  1
177 1054   0   4 122   6 59  0
178 632   0   0   0   0  0  0
179 314  60   1 123   3  0  1
180 1054   0   4 124   6 60  0
181 632   0   0   0   0  0  0
182 314  61   1 125   3  0  1
183 1054   0   4 126   6 61  0
184 632   0   0   0   0  0  0
185 314  62   1 127   3  0  1
186 1054   0   4 128   6 62  0
187 632   0   0   0   0  0  0
188 314  63   1 129   3  0  1
189 1054   0   4 130   6 63  0
190 632   0   0   0   0  0  0
191 314  64   1 131   3  0  1
192 1054   0   4 132   6 64  0
193 632   0   0   0   0  0  0
194 314  65   1 133   3  0  1
195 1054   0   4 134   6 65  0
196 632   0   0   0   0  0  0
197 314  66   1 135   3  0  1
198 1054   0   4 136   6 66  0
199 632   0   0   0   0  0  0
200 314  67   1 137   3  0  1
201 1054   0   4 138   6 67  0
202 632   0   0   0   0  0  0
203 314  68   1 139   3  0  1
204 1054   0   4 140   6 68  0
205 632   0   0   0   0  0  0
206 314  69   1 141   3  0  1
207 1054   0   4 142   6 69  0
208 632   0   0   0   0  0  0
209 314  70   1 143   3  0  1
210 1054   0   4 144   6 70  0
211 632   0   0   0   0  0  0
212 314  71   1 145   3  0  1
213 1054   0   4 146   6 71  0
214 632   0   0   0   0  0  0
215 314  72   1 147   3  0  1
216 1054   0   4 148   6 72  0
217 632   0   0   0   0  0  0
218 314  73   1 149   3  0  1
219 1054   0   4 150   6 73  0
220 632   0   0   0   0  0  0
221 314  74   1 151   3  0  1
222 1054   0   4 152   6 74  0
223 632   0   0   0   0  0  0
224 314  75   1 153   3  0  1
225 1054   0   4 154   6 75  0
226 632   0   0   0   0  0  0
227 314  76   1 155   3  0  1
228 1054   0   4 156   6 76  0
229 632   0   0   0   0  0  0
230 314  77   1 157   3  0  1
231 1054   0   4 158   6 77  0
232 632   0   0   0   0  0  0
233 314  78   1 159   3  0  1
234 1054   0   4 160   6 78  0
235 632   0   0   0   0  0  0
236 314  79   1 161   3  0  1
237 1054   0   4 162   6 79  0
238 632   0   0   0   0  0  0
239 314  80   1 163   3  0  1
240 1054   0   4 164   6 80  0
241 632   0   0   0   0  0  0
242 314  81   1 165   3  0  1
243 1054   0   4 166   6 81  0
244 632   0   0   0   0  0  0
245 314  82   1 167   3  0  1
246 1054   0   4 168   6 82  0
247 632   0   0   0   0  0  0
248 314  83   1 169   3  0  1
249 1054   0   4 170   6 83  0
250 632   0   0   0   0  0  0
251 314  84   1 171   3  0  1
252 1054   0   4 172   6 84  0
253 632   0   0   0   0  0  0
254 314  85   1 173   3  0  1
255 1054   0   4 174   6 85  0
256 632   0   0   0   0  0  0
257 314  86   1 175   3  0  1
258 1054   0   4 176   6 86  0
259 632   0   0   0   0  0  0
260 314  87   1 177   3  0  1
261 1054   0   4 178   6 87  0
262 632   0   0   0   0  0  0
263 314  88   1 179   3  0  1
264 1054   0   4 180   6 88  0
265 632   0   0   0   0  0  0
266 314  89   1 181   3  0  1
267 1054   0   4 182   6 89  0
268 632   0   0   0   0  0  0
269 314  90   1 183   3  0  1
270 1054   0   4 184   6 90  0
271 632   0   0   0   0  0  0
272 314  91   1 185   3  0  1
273 1054   0   4 186   6 91  0
274 632   0   0   0   0  0  0
275 314  92   1 187   3  0  1
276 1054   0   4 188   6 92  0
277 632   0   0   0   0  0  0
278 314  93   1 189   3  0  1
279 1054   0   4 190   6 93  0
280 632   0   0   0   0  0  0
281 314  94   1 191   3  0  1
282 1054   0   4 192   6 94  0
283 632   0   0   0   0  0  0
284 314  95   1 193   3  0  1
285 1054   0   4 194   6 95  0
286 632   0   0   0   0  0  0
287 314  96   1 195   3  0  1
288 1054   0   4 196   6 96  0
289 632   0   0   0   0  0  0
290 314  97   1 197   3  0  1
291 1054   0   4 198   6 97  0
292 632   0   0   0   0  0  0
293 314  98   1 199   3  0  1
294 1054   0   4 200   6 98  0
295 632   0   0   0   0  0  0
296 314  99   1 201   3  0  1
297 1054   0   4 202   6 99  0
298 632   0   0   0   0  0  0
299 314 100   1 203   3  0  1
300 1054   0   4 204   6 100  0
301 632   0   0   0   0  0  0
302 314 101   1 205   3  0  1
303 1054   0   4 206   6 101  0
304 632   0   0   0   0  0  0
305 314 102   1 207   3  0  1
306 1054   0   4 208   6 102  0
307 632   0   0   0   0  0  0
308 314 103   1 209   3  0  1
309 1054   0   4 210   6 103  0
310 632   0   0   0   0  0  0
311 314 104   1 211   3  0  1
312 1054   0   4 212   6 104  0
313 632   0   0   0   0  0  0
314 314 105   1 213   3  0  1
315 1054   0   4 214   6 105  0
316 632   0   0   0   0  0  0
317 314 106   1 215   3  0  1
318 1054   0   4 216   6 106  0
319 632   0   0   0   0  0  0
[RF]
1      46.3027 1 2 0 100 0 13.09
2      46.3027 1 2 0 100 0 18.326
3      46.3027 1 2 0 100 0 24.4346
4      46.3027 1 2 0 100 0 31.4159
5      46.3027 1 2 0 100 0 39.2699
6      46.3027 1 2 0 100 0 47.9966
7      46.3027 1 2 0 100 0 57.5959
8      46.3027 1 2 0 100 0 68.0678
9      46.3027 1 2 0 100 0 79.4125
10      46.3027 1 2 0 100 0 91.6298
11      46.3027 1 2 0 100 0 104.72
12      46.3027 1 2 0 100 0 118.682
13      46.3027 1 2 0 100 0 133.518
14      46.3027 1 2 0 100 0 149.226
15      46.3027 1 2 0 100 0 165.806
16      46.3027 1 2 0 100 0 183.26
17      46.3027 1 2 0 100 0 201.586
18      46.3027 1 2 0 100 0 220.784
19      46.3027 1 2 0 100 0 240.855
20      46.3027 1 2 0 100 0 261.799
21      46.3027 1 2 0 100 0 283.616
22      46.3027 1 2 0 100 0 306.305
23      46.3027 1 2 0 100 0 329.867
24      46.3027 1 2 0 100 0 354.302
25      46.3027 1 2 0 100 0 379.609
26      46.3027 1 2 0 100 0 405.789
27      46.3027 1 2 0 100 0 432.842
28      46.3027 1 2 0 100 0 460.767
29      46.3027 1 2 0 100 0 489.565
30      46.3027 1 2 0 100 0 519.235
31      46.3027 1 2 0 100 0 549.779
32      46.3027 1 2 0 100 0 581.195
33      46.3027 1 2 0 100 0 613.483
34      46.3027 1 2 0 100 0 646.644
35      46.3027 1 2 0 100 0 680.678
36      46.3027 1 2 0 100 0 715.585
37      46.3027 1 2 0 100 0 751.364
38      46.3027 1 2 0 100 0 788.016
39      46.3027 1 2 0 100 0 825.541
40      46.3027 1 2 0 100 0 863.938
41      46.3027 1 2 0 100 0 903.208
42      46.3027 1 2 0 100 0 943.35
43      46.3027 1 2 0 100 0 984.366
44      46.3027 1 2 0 100 0 1026.25
45      46.3027 1 2 0 100 0 1069.01
46      46.3027 1 2 0 100 0 1112.65
47      46.3027 1 2 0 100 0 1157.15
48      46.3027 1 2 0 100 0 1202.53
49      46.3027 1 2 0 100 0 1248.78
50      46.3027 1 2 0 100 0 1295.91
51      46.3027 1 2 0 100 0 1343.9
52      46.3027 1 2 0 100 0 1392.77
53      46.3027 1 2 0 100 0 1442.51
54      46.3027 1 2 0 100 0 1493.13
55      46.3027 1 2 0 100 0 1544.62
56      46.3027 1 2 0 100 0 1596.98
57      46.3027 1 2 0 100 0 1650.21
58      46.3027 1 2 0 100 0 1704.31
59      46.3027 1 2 0 100 0 1759.29
60      46.3027 1 2 0 100 0 1815.14
61      46.3027 1 2 0 100 0 1871.87
62      46.3027 1 2 0 100 0 1929.46
63      46.3027 1 2 0 100 0 1987.93
64      46.3027 1 2 0 100 0 2047.27
65      46.3027 1 2 0 100 0 2107.49
66      46.3027 1 2 0 100 0 2168.57
67      46.3027 1 2 0 100 0 2230.53
68      46.3027 1 2 0 100 0 2293.36
69      46.3027 1 2 0 100 0 2357.07
70      46.3027 1 2 0 100 0 2421.64
71      46.3027 1 2 0 100 0 2487.09
72      46.3027 1 2 0 100 0 2553.42
73      46.3027 1 2 0 100 0 2620.61
74      46.3027 1 2 0 100 0 2688.68
75      46.3027 1 2 0 100 0 2757.62
76      46.3027 1 2 0 100 0 2827.43
77      46.3027 1 2 0 100 0 2898.12
78      46.3027 1 2 0 100 0 2969.68
79      46.3027 1 2 0 100 0 3042.11
80      46.3027 1 2 0 100 0 3115.41
81      46.3027 1 2 0 100 0 3189.59
82      46.3027 1 2 0 100 0 3264.64
83      46.3027 1 2 0 100 0 3340.56
84      46.3027 1 2 0 100 0 3417.35
85      46.3027 1 2 0 100 0 3495.02
86      46.3027 1 2 0 100 0 3573.56
87      46.3027 1 2 0 100 0 3652.97
88      46.3027 1 2 0 100 0 3733.26
89      46.3027 1 2 0 100 0 3814.42
90      46.3027 1 2 0 100 0 3896.45
91      46.3027 1 2 0 100 0 3979.35
92      46.3027 1 2 0 100 0 4063.13
93      46.3027 1 2 0 100 0 4147.77
94      46.3027 1 2 0 100 0 4233.3
95      46.3027 1 2 0 100 0 4319.69
96      46.3027 1 2 0 100 0 4406.96
97      46.3027 1 2 0 100 0 4495.1
98      46.3027 1 2 0 100 0 4584.11
99      46.3027 1 2 0 100 0 4673.99
100      46.3027 1 2 0 100 0 4764.75
101      46.3027 1 2 0 100 0 4856.38
102      46.3027 1 2 0 100 0 4948.88
103      46.3027 1 2 0 100 0 5042.26
104      46.3027 1 2 0 100 0 5136.5
105      46.3027 1 2 0 100 0 5231.62
106      46.3027 1 2 0 100 0 5327.62
107      46.3027 1 2 0 100 0 5424.48
108      46.3027 1 2 0 100 0 5522.22
109      46.3027 1 2 0 100 0 5620.83
110      46.3027 1 2 0 100 0 5720.32
111      46.3027 1 2 0 100 0 5820.67
112      46.3027 1 2 0 100 0 5921.9
113      46.3027 1 2 0 100 0 6024
114      46.3027 1 2 0 100 0 6126.98
115      46.3027 1 2 0 100 0 6230.83
116      46.3027 1 2 0 100 0 52.3599
117      46.3027 1 2 0 100 0 157.952
118      46.3027 1 2 0 100 0 264.417
119      46.3027 1 2 0 100 0 371.755
120      46.3027 1 2 0 100 0 479.966
121      46.3027 1 2 0 100 0 589.049
122      46.3027 1 2 0 100 0 699.004
123      46.3027 1 2 0 100 0 809.833
124      46.3027 1 2 0 100 0 921.534
125      46.3027 1 2 0 100 0 1034.11
126      46.3027 1 2 0 100 0 1147.55
127      46.3027 1 2 0 100 0 1261.87
128      46.3027 1 2 0 100 0 1377.06

# Format of arbitrary gradients:
#   time_shape_id of 0 means default timing (stepping with grad_raster starting at 1/2 of grad_raster)
# id amplitude amp_shape_id time_shape_id delay
# ..      Hz/m       ..         ..          us
[GRADIENTS]
1  1.29841e+06 3 0 0
2  1.29168e+06 4 0 0
3 -1.43772e+06 5 0 0
4      -111112 6 0 6300
5 -1.29168e+06 7 0 6300
6 -1.43772e+06 8 0 6300
7   1.2715e+06 9 0 0
8  -1.2715e+06 10 0 6300
9  1.25131e+06 11 0 0
10 -1.25131e+06 12 0 6300
11  1.23113e+06 13 0 0
12 -1.23113e+06 14 0 6300
13  1.21095e+06 15 0 0
14 -1.21095e+06 16 0 6300
15  1.19077e+06 17 0 0
16 -1.19077e+06 18 0 6300
17  1.17058e+06 19 0 0
18 -1.17058e+06 20 0 6300
19   1.1504e+06 21 0 0
20  -1.1504e+06 22 0 6300
21  1.13022e+06 23 0 0
22 -1.13022e+06 24 0 6300
23  1.11004e+06 25 0 0
24 -1.11004e+06 26 0 6300
25  1.08985e+06 27 0 0
26 -1.08985e+06 28 0 6300
27  1.06967e+06 29 0 0
28 -1.06967e+06 30 0 6300
29  1.04949e+06 31 0 0
30 -1.04949e+06 32 0 6300
31  1.02931e+06 33 0 0
32 -1.02931e+06 34 0 6300
33  1.00912e+06 35 0 0
34 -1.00912e+06 36 0 6300
35       988942 37 0 0
36      -988942 38 0 6300
37       968760 39 0 0
38      -968760 40 0 6300
39       948577 41 0 0
40      -948577 42 0 6300
41       928395 43 0 0
42      -928395 44 0 6300
43       908212 45 0 0
44      -908212 46 0 6300
45       888030 47 0 0
46      -888030 48 0 6300
47       867847 49 0 0
48      -867847 50 0 6300
49       847665 51 0 0
50      -847665 52 0 6300
51       827482 53 0 0
52      -827482 54 0 6300
53       807300 55 0 0
54      -807300 56 0 6300
55       787117 57 0 0
56      -787117 58 0 6300
57       766935 59 0 0
58      -766935 60 0 6300
59       746752 61 0 0
60      -746752 62 0 6300
61       726570 63 0 0
62      -726570 64 0 6300
63       706387 65 0 0
64      -706387 66 0 6300
65       686205 67 0 0
66      -686205 68 0 6300
67       666022 69 0 0
68      -666022 70 0 6300
69       645840 71 0 0
70      -645840 72 0 6300
71       625657 73 0 0
72      -625657 74 0 6300
73       605475 75 0 0
74      -605475 76 0 6300
75       585292 77 0 0
76      -585292 78 0 6300
77       565110 79 0 0
78      -565110 80 0 6300
79       544927 81 0 0
80      -544927 82 0 6300
81       524745 83 0 0
82      -524745 84 0 6300
83       504562 85 0 0
84      -504562 86 0 6300
85       484380 87 0 0
86      -484380 88 0 6300
87       464197 3 0 0
88      -464197 89 0 6300
89       444015 90 0 0
90      -444015 91 0 6300
91       423832 92 0 0
92      -423832 93 0 6300
93       403650 94 0 0
94      -403650 95 0 6300
95       383467 96 0 0
96      -383467 97 0 6300
97       363285 98 0 0
98      -363285 99 0 6300
99       343102 100 0 0
100      -343102 101 0 6300
101       322920 102 0 0
102      -322920 103 0 6300
103       302737 104 0 0
104      -302737 105 0 6300
105       282555 106 0 0
106      -282555 107 0 6300
107       262372 108 0 0
108      -262372 109 0 6300
109       242190 110 0 0
110      -242190 111 0 6300
111       222007 112 0 0
112      -222007 113 0 6300
113       201825 114 0 0
114      -201825 115 0 6300
115       181642 116 0 0
116      -181642 117 0 6300
117       161460 118 0 0
118      -161460 119 0 6300
119       141277 120 0 0
120      -141277 121 0 6300
121       121095 122 0 0
122      -121095 123 0 6300
123       100912 124 0 0
124      -100912 125 0 6300
125        80730 126 0 0
126       -80730 127 0 6300
127      60547.5 128 0 0
128     -60547.5 129 0 6300
129        40365 130 0 0
130       -40365 131 0 6300
131      20182.5 132 0 0
132     -20182.5 133 0 6300
133            0 134 0 0
134            0 135 0 6300
135     -20182.5 132 0 0
136      20182.5 133 0 6300
137       -40365 130 0 0
138        40365 131 0 6300
139     -60547.5 128 0 0
140      60547.5 129 0 6300
141       -80730 126 0 0
142        80730 127 0 6300
143      -100912 124 0 0
144       100912 125 0 6300
145      -121095 122 0 0
146       121095 123 0 6300
147      -141277 120 0 0
148       141277 121 0 6300
149      -161460 118 0 0
150       161460 119 0 6300
151      -181642 116 0 0
152       181642 117 0 6300
153      -201825 114 0 0
154       201825 115 0 6300
155      -222007 112 0 0
156       222007 113 0 6300
157      -242190 110 0 0
158       242190 111 0 6300
159      -262372 108 0 0
160       262372 109 0 6300
161      -282555 106 0 0
162       282555 107 0 6300
163      -302737 104 0 0
164       302737 105 0 6300
165      -322920 102 0 0
166       322920 103 0 6300
167      -343102 100 0 0
168       343102 101 0 6300
169      -363285 98 0 0
170       363285 99 0 6300
171      -383467 96 0 0
172       383467 97 0 6300
173      -403650 94 0 0
174       403650 95 0 6300
175      -423832 92 0 0
176       423832 93 0 6300
177      -444015 90 0 0
178       444015 91 0 6300
179      -464197 3 0 0
180       464197 89 0 6300
181      -484380 87 0 0
182       484380 88 0 6300
183      -504562 85 0 0
184       504562 86 0 6300
185      -524745 83 0 0
186       524745 84 0 6300
187      -544927 81 0 0
188       544927 82 0 6300
189      -565110 79 0 0
190       565110 80 0 6300
191      -585292 77 0 0
192       585292 78 0 6300
193      -605475 75 0 0
194       605475 76 0 6300
195      -625657 73 0 0
196       625657 74 0 6300
197      -645840 71 0 0
198       645840 72 0 6300
199      -666022 69 0 0
200       666022 70 0 6300
201      -686205 67 0 0
202       686205 68 0 6300
203      -706387 65 0 0
204       706387 66 0 6300
205      -726570 63 0 0
206       726570 64 0 6300
207      -746752 61 0 0
208       746752 62 0 6300
209      -766935 59 0 0
210       766935 60 0 6300
211      -787117 57 0 0
212       787117 58 0 6300
213      -807300 55 0 0
214       807300 56 0 6300
215      -827482 53 0 0
216       827482 54 0 6300
217      -847665 51 0 0
218       847665 52 0 6300
219      -867847 49 0 0
220       867847 50 0 6300
221      -888030 47 0 0
222       888030 48 0 6300
223      -908212 45 0 0
224       908212 46 0 6300
225      -928395 43 0 0
226       928395 44 0 6300
227      -948577 41 0 0
228       948577 42 0 6300
229      -968760 39 0 0
230       968760 40 0 6300
231      -988942 37 0 0
232       988942 38 0 6300
233 -1.00912e+06 35 0 0
234  1.00912e+06 36 0 6300
235 -1.02931e+06 33 0 0
236  1.02931e+06 34 0 6300
237 -1.04949e+06 31 0 0
238  1.04949e+06 32 0 6300
239 -1.06967e+06 29 0 0
240  1.06967e+06 30 0 6300
241 -1.08985e+06 27 0 0
242  1.08985e+06 28 0 6300
243 -1.11004e+06 25 0 0
244  1.11004e+06 26 0 6300
245 -1.13022e+06 23 0 0
246  1.13022e+06 24 0 6300
247  -1.1504e+06 21 0 0
248   1.1504e+06 22 0 6300
249 -1.17058e+06 19 0 0
250  1.17058e+06 20 0 6300
251 -1.19077e+06 17 0 0
252  1.19077e+06 18 0 6300
253 -1.21095e+06 15 0 0
254  1.21095e+06 16 0 6300
255 -1.23113e+06 13 0 0
256  1.23113e+06 14 0 6300
257 -1.25131e+06 11 0 0
258  1.25131e+06 12 0 6300
259  -1.2715e+06 9 0 0
260   1.2715e+06 10 0 6300

# Format of ADC events:
# id num dwell delay freq phase
# ..  ..    ns    us   Hz   rad
[ADC]
1 256 15000 6320 0 13.09
2 256 15000 6320 0 18.326
3 256 15000 6320 0 24.4346
4 256 15000 6320 0 31.4159
5 256 15000 6320 0 39.2699
6 256 15000 6320 0 47.9966
7 256 15000 6320 0 57.5959
8 256 15000 6320 0 68.0678
9 256 15000 6320 0 79.4125
10 256 15000 6320 0 91.6298
11 256 15000 6320 0 104.72
12 256 15000 6320 0 118.682
13 256 15000 6320 0 133.518
14 256 15000 6320 0 149.226
15 256 15000 6320 0 165.806
16 256 15000 6320 0 183.26
17 256 15000 6320 0 201.586
18 256 15000 6320 0 220.784
19 256 15000 6320 0 240.855
20 256 15000 6320 0 261.799
21 256 15000 6320 0 283.616
22 256 15000 6320 0 306.305
23 256 15000 6320 0 329.867
24 256 15000 6320 0 354.302
25 256 15000 6320 0 379.609
26 256 15000 6320 0 405.789
27 256 15000 6320 0 432.842
28 256 15000 6320 0 460.767
29 256 15000 6320 0 489.565
30 256 15000 6320 0 519.235
31 256 15000 6320 0 549.779
32 256 15000 6320 0 581.195
33 256 15000 6320 0 613.483
34 256 15000 6320 0 646.644
35 256 15000 6320 0 680.678
36 256 15000 6320 0 715.585
37 256 15000 6320 0 751.364
38 256 15000 6320 0 788.016
39 256 15000 6320 0 825.541
40 256 15000 6320 0 863.938
41 256 15000 6320 0 903.208
42 256 15000 6320 0 943.35
43 256 15000 6320 0 984.366
44 256 15000 6320 0 1026.25
45 256 15000 6320 0 1069.01
46 256 15000 6320 0 1112.65
47 256 15000 6320 0 1157.15
48 256 15000 6320 0 1202.53
49 256 15000 6320 0 1248.78
50 256 15000 6320 0 1295.91
51 256 15000 6320 0 1343.9
52 256 15000 6320 0 1392.77
53 256 15000 6320 0 1442.51
54 256 15000 6320 0 1493.13
55 256 15000 6320 0 1544.62
56 256 15000 6320 0 1596.98
57 256 15000 6320 0 1650.21
58 256 15000 6320 0 1704.31
59 256 15000 6320 0 1759.29
60 256 15000 6320 0 1815.14
61 256 15000 6320 0 1871.87
62 256 15000 6320 0 1929.46
63 256 15000 6320 0 1987.93
64 256 15000 6320 0 2047.27
65 256 15000 6320 0 2107.49
66 256 15000 6320 0 2168.57
67 256 15000 6320 0 2230.53
68 256 15000 6320 0 2293.36
69 256 15000 6320 0 2357.07
70 256 15000 6320 0 2421.64
71 256 15000 6320 0 2487.09
72 256 15000 6320 0 2553.42
73 256 15000 6320 0 2620.61
74 256 15000 6320 0 2688.68
75 256 15000 6320 0 2757.62
76 256 15000 6320 0 2827.43
77 256 15000 6320 0 2898.12
78 256 15000 6320 0 2969.68
79 256 15000 6320 0 3042.11
80 256 15000 6320 0 3115.41
81 256 15000 6320 0 3189.59
82 256 15000 6320 0 3264.64
83 256 15000 6320 0 3340.56
84 256 15000 6320 0 3417.35
85 256 15000 6320 0 3495.02
86 256 15000 6320 0 3573.56
87 256 15000 6320 0 3652.97
88 256 15000 6320 0 3733.26
89 256 15000 6320 0 3814.42
90 256 15000 6320 0 3896.45
91 256 15000 6320 0 3979.35
92 256 15000 6320 0 4063.13
93 256 15000 6320 0 4147.77
94 256 15000 6320 0 4233.3
95 256 15000 6320 0 4319.69
96 256 15000 6320 0 4406.96
97 256 15000 6320 0 4495.1
98 256 15000 6320 0 4584.11
99 256 15000 6320 0 4673.99
100 256 15000 6320 0 4764.75
101 256 15000 6320 0 4856.38
102 256 15000 6320 0 4948.88
103 256 15000 6320 0 5042.26
104 256 15000 6320 0 5136.5
105 256 15000 6320 0 5231.62
106 256 15000 6320 0 5327.62
107 256 15000 6320 0 5424.48
108 256 15000 6320 0 5522.22
109 256 15000 6320 0 5620.83
110 256 15000 6320 0 5720.32
111 256 15000 6320 0 5820.67
112 256 15000 6320 0 5921.9
113 256 15000 6320 0 6024
114 256 15000 6320 0 6126.98
115 256 15000 6320 0 6230.83
116 256 15000 6320 0 52.3599
117 256 15000 6320 0 157.952
118 256 15000 6320 0 264.417
119 256 15000 6320 0 371.755
120 256 15000 6320 0 479.966
121 256 15000 6320 0 589.049
122 256 15000 6320 0 699.004
123 256 15000 6320 0 809.833
124 256 15000 6320 0 921.534
125 256 15000 6320 0 1034.11
126 256 15000 6320 0 1147.55
127 256 15000 6320 0 1261.87
128 256 15000 6320 0 1377.06

# Format of extension lists:
# id type ref next_id
# next_id of 0 terminates the list
# Extension list is followed by extension specifications
[EXTENSIONS]
1 1 1 0

# Extension specification for digital output and input triggers:
# id type channel delay (us) duration (us)
extension TRIGGERS 1
1 1 1 0 10

# Sequence Shapes
[SHAPES]

shape_id 1
num_samples 512
0
0
30
0.0048309
0
0
21
-0.0048309
0
0
13
0.0048309
0
0
1
0.0048309
0
0
1
0.0096619
0
0
1
0.0048309
0
0
1
0.0096618
0
0
1
0.0144928
0
0
1
0.0096618
0
0
1
0.0144928
0
0
1
0.0144927
0
0
1
0.0193237
0
0
1
0.0144927
0
0
1
0.0241546
0
0
1
0.0193237
0
0
1
0.0241546
0
0
1
0.0241546
0
0
1
0.0241546
0
0
1
0.0289855
0
0
1
0.0289855
0
0
1
0.0289855
0
0
1
0.0289855
0
0
1
0.0338164
0
0
1
0.0289855
0
0
1
0.0338165
0
0
1
0.0338164
0
0
1
0.0338164
0
0
1
0.0338164
0
0
1
0.0338165
0
0
1
0.0338164
0
0
1
0.0338164
0
0
1
0.0338164
0
0
1
0.0338165
0
0
1
0.0289855
0
0
1
0.0289855
0
0
1
0.0289855
0
0
1
0.0289855
0
0
1
0.0241546
0
0
1
0.0241546
0
0
1
0.0241546
0
0
1
0.0193236
0
0
1
0.0193237
0
0
1
0.0144928
0
0
1
0.0144927
0
0
1
0.0096618
0
0
1
0.004831
0
0
1
0.0096618
0
0
13
-0.0096618
0
0
1
-0.004831
0
0
1
-0.0096618
0
0
1
-0.0144927
0
0
1
-0.0144928
0
0
1
-0.0193237
0
0
1
-0.0193236
0
0
1
-0.0241546
0
0
1
-0.0241546
0
0
1
-0.0241546
0
0
1
-0.0289855
0
0
1
-0.0289855
0
0
1
-0.0289855
0
0
1
-0.0289855
0
0
1
-0.0338165
0
0
1
-0.0338164
0
0
1
-0.0338164
0
0
1
-0.0338164
0
0
1
-0.0338165
0
0
1
-0.0338164
0
0
1
-0.0338164
0
0
1
-0.0338164
0
0
1
-0.0338165
0
0
1
-0.0289855
0
0
1
-0.0338164
0
0
1
-0.0289855
0
0
1
-0.0289855
0
0
1
-0.0289855
0
0
1
-0.0289855
0
0
1
-0.0241546
0
0
1
-0.0241546
0
0
1
-0.0241546
0
0
1
-0.0193237
0
0
1
-0.0241546
0
0
1
-0.0144927
0
0
1
-0.0193237
0
0
1
-0.0144927
0
0
1
-0.0144928
0
0
1
-0.0096618
0
0
1
-0.0144928
0
0
1
-0.0096618
0
0
1
-0.0048309
0
0
1
-0.0096619
0
0
1
-0.0048309
0
0
1
-0.0048309
0
0
13
0.0048309
0
0
21
-0.0048309
0
0
29

shape_id 2
num_samples 512
0
0
6
0.5
0
0
53
-0.5
0
0
381
0.5
0
0
53
-0.5
0
0
5

shape_id 3
num_samples 314
0
0
264
0.0322581
0.0645161
0.0645161
0
0.0645162
0.0645161
0.0645161
1
0.0645162
0.0645161
0.0645161
0
0.0645162
0.0645161
0.0645161
1
0.0645162
0.0645161
0
-0.0645161
-0.0645162
-0.0645161
-0.0645161
1
-0.0645162
-0.0645161
-0.0645161
0
-0.0645162
-0.0645161
-0.0645161
1
-0.0645162
-0.0645161
-0.0645161
0
-0.0322581
0
0
13

shape_id 4
num_samples 314
0
0
264
0.032258
0.0645162
0.0645161
0.0645161
2
0.0645162
0.0645161
0.0645162
0.0645161
0.0645161
2
0.0645162
0.0645161
0.0645161
0
1e-07
-0.0645161
-0.0645162
-0.0645161
-0.0645161
1
-0.0645162
-0.0645161
-0.0645161
1
-0.0645162
-0.0645161
-0.0645161
1
-0.0645162
-0.0645161
-0.0322581
0
0
13

shape_id 5
num_samples 314
0.0073359
0.0146718
0.0146718
1
0.0146719
0.0146718
0.0146718
3
0.0073359
0
0
253
-0.0073359
-0.0146718
-0.0146718
6
-0.0146719
-0.0343629
-0.0540541
-0.054054
-0.054054
0
-0.0540541
-0.0540541
0
-0.054054
-0.0540541
-0.054054
-0.0540541
-0.0540541
0
-0.054054
-0.054054
0
-0.0540541
-0.0540541
0
-0.054054
-0.0540541
-0.054054
-0.0540541
0
0.0540541
0.054054
0.0540541
0.054054
0.0540541
0.054054
0.0540541
0.0540541
0
0.054054
0.054054
0
0.0540541
0.0540541
1
0.054054
0.054054
0
0.0540541
0.0540541
0
0.054054

shape_id 6
num_samples 424
0.2499998
0.5
0.2500002
0
0
381
-0.2500002
-0.5
-0.2499998
0
0
33

shape_id 7
num_samples 424
0
0
384
0.032258
0.0645162
0.0645161
0.0645161
0
0.0645162
0.0645161
0.0645161
1
0.0645162
0.0645161
0.0645161
0
0.0645162
0.0645161
0.0645161
1
0.0645162
0
-0.0645161
-0.0645162
-0.0645161
-0.0645161
0
-0.0645162
-0.0645161
-0.0645161
1
-0.0645162
-0.0645161
-0.0645161
1
-0.0645162
-0.0645161
-0.0645161
0
-0.0322581
0
0
3

shape_id 8
num_samples 424
0
0
384
0.027027
0.0540541
0.054054
0.054054
0
0.0540541
0.0540541
0
0.054054
0.0540541
0.0540541
0
0.054054
0.054054
0
0.0540541
0.0540541
0
0.054054
0.0540541
0.0540541
0
0.054054
0.054054
0
0.0540541
0
-0.0540541
-0.054054
-0.054054
0
-0.0540541
-0.0540541
0
-0.054054
-0.0540541
-0.054054
-0.0540541
-0.0540541
0
-0.054054
-0.0540541
-0.054054
-0.0540541
-0.054054
-0.0540541
-0.054054
-0.0540541

shape_id 9
num_samples 314
0
0
264
0.032258
0.0645162
0.0645161
0.0645161
2
0.0645162
0.0645161
0.0645162
0.0645161
0.0645161
0
0.0645162
0.0645161
0.0645161
0
0.0645162
0.0645161
0
-0.0645161
-0.0645161
0
-0.0645162
-0.0645161
-0.0645162
-0.0645161
-0.0645161
2
-0.0645162
-0.0645161
-0.0645162
-0.0645161
-0.0645161
1
-0.0322581
0
0
13

shape_id 10
num_samples 424
0
0
384
0.0322581
0.0645161
0.0645161
2
0.0645162
0.0645161
0.0645162
0.0645161
0.0645161
2
0.0645162
0.0645161
0.0645162
0.0645161
0
-0.0645161
-0.0645161
0
-0.0645162
-0.0645161
-0.0645161
0
-0.0645162
-0.0645161
-0.0645161
0
-0.0645162
-0.0645161
-0.0645161
1
-0.0645162
-0.0645161
-0.0645161
0
-0.0322581
0
0
3

shape_id 11
num_samples 314
0
0
264
0.0322581
0.0645161
0.0645161
0
0.0645162
