# Pulseq sequence file
# Created by PyPulseq

[VERSION]
major 1
minor 4
revision 2

[DEFINITIONS]
AdcRasterTime 1e-07 
BlockDurationRaster 1e-05 
GradientRasterTime 1e-05 
Name MiniFLASH.seq 
RadiofrequencyRasterTime 5e-06 
TotalDuration 2.56 

# Format of blocks:
# NUM DUR RF  GX  GY  GZ  ADC  EXT
[BLOCKS]
  1 314   1   1   2   3  0  1
  2 1054   0   4   5   6  1  0
  3 632   0   0   0   0  0  0
  4 314   2   1   7   3  0  1
  5 1054   0   4   8   6  2  0
  6 632   0   0   0   0  0  0
  7 314   3   1   9   3  0  1
  8 1054   0   4  10   6  3  0
  9 632   0   0   0   0  0  0
 10 314   4   1  11   3  0  1
 11 1054   0   4  12   6  4  0
 12 632   0   0   0   0  0  0
 13 314   5   1  13   3  0  1
 14 1054   0   4  14   6  5  0
 15 632   0   0   0   0  0  0
 16 314   6   1  15   3  0  1
 17 1054   0   4  16   6  6  0
 18 632   0   0   0   0  0  0
 19 314   7   1  17   3  0  1
 20 1054   0   4  18   6  7  0
 21 632   0   0   0   0  0  0
 22 314   8   1  19   3  0  1
 23 1054   0   4  20   6  8  0
 24 632   0   0   0   0  0  0
 25 314   6   1  21   3  0  1
 26 1054   0   4  22   6  6  0
 27 632   0   0   0   0  0  0
 28 314   9   1  23   3  0  1
 29 1054   0   4  24   6  9  0
 30 632   0   0   0   0  0  0
 31 314  10   1  25   3  0  1
 32 1054   0   4  26   6 10  0
 33 632   0   0   0   0  0  0
 34 314   3   1  27   3  0  1
 35 1054   0   4  28   6  3  0
 36 632   0   0   0   0  0  0
 37 314   5   1  29   3  0  1
 38 1054   0   4  30   6  5  0
 39 632   0   0   0   0  0  0
 40 314  11   1  31   3  0  1
 41 1054   0   4  32   6 11  0
 42 632   0   0   0   0  0  0
 43 314  12   1  33   3  0  1
 44 1054   0   4  34   6 12  0
 45 632   0   0   0   0  0  0
 46 314   7   1  35   3  0  1
 47 1054   0   4  36   6  7  0
 48 632   0   0   0   0  0  0
 49 314   1   1  37   3  0  1
 50 1054   0   4  38   6  1  0
 51 632   0   0   0   0  0  0
 52 314  13   1  39   3  0  1
 53 1054   0   4  40   6 13  0
 54 632   0   0   0   0  0  0
 55 314  14   1  41   3  0  1
 56 1054   0   4  42   6 14  0
 57 632   0   0   0   0  0  0
 58 314  10   1  43   3  0  1
 59 1054   0   4  44   6 10  0
 60 632   0   0   0   0  0  0
 61 314  13   1  45   3  0  1
 62 1054   0   4  46   6 13  0
 63 632   0   0   0   0  0  0
 64 314  11   1  47   3  0  1
 65 1054   0   4  48   6 11  0
 66 632   0   0   0   0  0  0
 67 314  15   1  49   3  0  1
 68 1054   0   4  50   6 15  0
 69 632   0   0   0   0  0  0
 70 314  12   1  51   3  0  1
 71 1054   0   4  52   6 12  0
 72 632   0   0   0   0  0  0
 73 314  16   1  53   3  0  1
 74 1054   0   4  54   6 16  0
 75 632   0   0   0   0  0  0
 76 314   9   1  55   3  0  1
 77 1054   0   4  56   6  9  0
 78 632   0   0   0   0  0  0
 79 314   3   1  57   3  0  1
 80 1054   0   4  58   6  3  0
 81 632   0   0   0   0  0  0
 82 314  14   1  59   3  0  1
 83 1054   0   4  60   6 14  0
 84 632   0   0   0   0  0  0
 85 314   2   1  61   3  0  1
 86 1054   0   4  62   6  2  0
 87 632   0   0   0   0  0  0
 88 314   6   1  63   3  0  1
 89 1054   0   4  64   6  6  0
 90 632   0   0   0   0  0  0
 91 314  15   1  65   3  0  1
 92 1054   0   4  66   6 15  0
 93 632   0   0   0   0  0  0
 94 314  15   1  67   3  0  1
 95 1054   0   4  68   6 15  0
 96 632   0   0   0   0  0  0
 97 314   6   1  69   3  0  1
 98 1054   0   4  70   6  6  0
 99 632   0   0   0   0  0  0
100 314   2   1  71   3  0  1
101 1054   0   4  72   6  2  0
102 632   0   0   0   0  0  0
103 314  14   1  73   3  0  1
104 1054   0   4  74   6 14  0
105 632   0   0   0   0  0  0
106 314   3   1  75   3  0  1
107 1054   0   4  76   6  3  0
108 632   0   0   0   0  0  0
109 314   9   1  77   3  0  1
110 1054   0   4  78   6  9  0
111 632   0   0   0   0  0  0
112 314  16   1  79   3  0  1
113 1054   0   4  80   6 16  0
114 632   0   0   0   0  0  0
115 314  12   1  81   3  0  1
116 1054   0   4  82   6 12  0
117 632   0   0   0   0  0  0
118 314  15   1  83   3  0  1
119 1054   0   4  84   6 15  0
120 632   0   0   0   0  0  0
121 314  11   1  85   3  0  1
122 1054   0   4  86   6 11  0
123 632   0   0   0   0  0  0
124 314  13   1  87   3  0  1
125 1054   0   4  88   6 13  0
126 632   0   0   0   0  0  0
127 314  10   1  89   3  0  1
128 1054   0   4  90   6 10  0
129 632   0   0   0   0  0  0
130 314  14   1  91   3  0  1
131 1054   0   4  92   6 14  0
132 632   0   0   0   0  0  0
133 314  13   1  93   3  0  1
134 1054   0   4  94   6 13  0
135 632   0   0   0   0  0  0
136 314   1   1  95   3  0  1
137 1054   0   4  96   6  1  0
138 632   0   0   0   0  0  0
139 314   7   1  97   3  0  1
140 1054   0   4  98   6  7  0
141 632   0   0   0   0  0  0
142 314  12   1  99   3  0  1
143 1054   0   4 100   6 12  0
144 632   0   0   0   0  0  0
145 314  11   1 101   3  0  1
146 1054   0   4 102   6 11  0
147 632   0   0   0   0  0  0
148 314   5   1 103   3  0  1
149 1054   0   4 104   6  5  0
150 632   0   0   0   0  0  0
151 314   3   1 105   3  0  1
152 1054   0   4 106   6  3  0
153 632   0   0   0   0  0  0
154 314  10   1 107   3  0  1
155 1054   0   4 108   6 10  0
156 632   0   0   0   0  0  0
157 314   9   1 109   3  0  1
158 1054   0   4 110   6  9  0
159 632   0   0   0   0  0  0
160 314   6   1 111   3  0  1
161 1054   0   4 112   6  6  0
162 632   0   0   0   0  0  0
163 314   8   1 113   3  0  1
164 1054   0   4 114   6  8  0
165 632   0   0   0   0  0  0
166 314   7   1 115   3  0  1
167 1054   0   4 116   6  7  0
168 632   0   0   0   0  0  0
169 314   6   1 117   3  0  1
170 1054   0   4 118   6  6  0
171 632   0   0   0   0  0  0
172 314   5   1 119   3  0  1
173 1054   0   4 120   6  5  0
174 632   0   0   0   0  0  0
175 314   4   1 121   3  0  1
176 1054   0   4 122   6  4  0
177 632   0   0   0   0  0  0
178 314   3   1 123   3  0  1
179 1054   0   4 124   6  3  0
180 632   0   0   0   0  0  0
181 314   2   1 125   3  0  1
182 1054   0   4 126   6  2  0
183 632   0   0   0   0  0  0
184 314   1   1 127   3  0  1
185 1054   0   4 128   6  1  0
186 632   0   0   0   0  0  0
187 314  12   1 129   3  0  1
188 1054   0   4 130   6 12  0
189 632   0   0   0   0  0  0
190 314   8   1 131   3  0  1
191 1054   0   4 132   6  8  0
192 632   0   0   0   0  0  0
193 314  16   1   0   3  0  1
194 1054   0   4   0   6 16  0
195 632   0   0   0   0  0  0
196 314  13   1 133   3  0  1
197 1054   0   4 134   6 13  0
198 632   0   0   0   0  0  0
199 314   4   1 135   3  0  1
200 1054   0   4 136   6  4  0
201 632   0   0   0   0  0  0
202 314   4   1 137   3  0  1
203 1054   0   4 138   6  4  0
204 632   0   0   0   0  0  0
205 314  13   1 139   3  0  1
206 1054   0   4 140   6 13  0
207 632   0   0   0   0  0  0
208 314  16   1 141   3  0  1
209 1054   0   4 142   6 16  0
210 632   0   0   0   0  0  0
211 314   8   1 143   3  0  1
212 1054   0   4 144   6  8  0
213 632   0   0   0   0  0  0
214 314  12   1 145   3  0  1
215 1054   0   4 146   6 12  0
216 632   0   0   0   0  0  0
217 314   1   1 147   3  0  1
218 1054   0   4 148   6  1  0
219 632   0   0   0   0  0  0
220 314   2   1 149   3  0  1
221 1054   0   4 150   6  2  0
222 632   0   0   0   0  0  0
223 314   3   1 151   3  0  1
224 1054   0   4 152   6  3  0
225 632   0   0   0   0  0  0
226 314   4   1 153   3  0  1
227 1054   0   4 154   6  4  0
228 632   0   0   0   0  0  0
229 314   5   1 155   3  0  1
230 1054   0   4 156   6  5  0
231 632   0   0   0   0  0  0
232 314   6   1 157   3  0  1
233 1054   0   4 158   6  6  0
234 632   0   0   0   0  0  0
235 314   7   1 159   3  0  1
236 1054   0   4 160   6  7  0
237 632   0   0   0   0  0  0
238 314   8   1 161   3  0  1
239 1054   0   4 162   6  8  0
240 632   0   0   0   0  0  0
241 314   6   1 163   3  0  1
242 1054   0   4 164   6  6  0
243 632   0   0   0   0  0  0
244 314   9   1 165   3  0  1
245 1054   0   4 166   6  9  0
246 632   0   0   0   0  0  0
247 314  10   1 167   3  0  1
248 1054   0   4 168   6 10  0
249 632   0   0   0   0  0  0
250 314   3   1 169   3  0  1
251 1054   0   4 170   6  3  0
252 632   0   0   0   0  0  0
253 314   5   1 171   3  0  1
254 1054   0   4 172   6  5  0
255 632   0   0   0   0  0  0
256 314  11   1 173   3  0  1
257 1054   0   4 174   6 11  0
258 632   0   0   0   0  0  0
259 314  12   1 175   3  0  1
260 1054   0   4 176   6 12  0
261 632   0   0   0   0  0  0
262 314   7   1 177   3  0  1
263 1054   0   4 178   6  7  0
264 632   0   0   0   0  0  0
265 314   1   1 179   3  0  1
266 1054   0   4 180   6  1  0
267 632   0   0   0   0  0  0
268 314  13   1 181   3  0  1
269 1054   0   4 182   6 13  0
270 632   0   0   0   0  0  0
271 314  14   1 183   3  0  1
272 1054   0   4 184   6 14  0
273 632   0   0   0   0  0  0
274 314  10   1 185   3  0  1
275 1054   0   4 186   6 10  0
276 632   0   0   0   0  0  0
277 314  13   1 187   3  0  1
278 1054   0   4 188   6 13  0
279 632   0   0   0   0  0  0
280 314  11   1 189   3  0  1
281 1054   0   4 190   6 11  0
282 632   0   0   0   0  0  0
283 314  15   1 191   3  0  1
284 1054   0   4 192   6 15  0
285 632   0   0   0   0  0  0
286 314  12   1 193   3  0  1
287 1054   0   4 194   6 12  0
288 632   0   0   0   0  0  0
289 314  16   1 195   3  0  1
290 1054   0   4 196   6 16  0
291 632   0   0   0   0  0  0
292 314   9   1 197   3  0  1
293 1054   0   4 198   6  9  0
294 632   0   0   0   0  0  0
295 314   3   1 199   3  0  1
296 1054   0   4 200   6  3  0
297 632   0   0   0   0  0  0
298 314  14   1 201   3  0  1
299 1054   0   4 202   6 14  0
300 632   0   0   0   0  0  0
301 314   2   1 203   3  0  1
302 1054   0   4 204   6  2  0
303 632   0   0   0   0  0  0
304 314   6   1 205   3  0  1
305 1054   0   4 206   6  6  0
306 632   0   0   0   0  0  0
307 314  15   1 207   3  0  1
308 1054   0   4 208   6 15  0
309 632   0   0   0   0  0  0
310 314  15   1 209   3  0  1
311 1054   0   4 210   6 15  0
312 632   0   0   0   0  0  0
313 314   6   1 211   3  0  1
314 1054   0   4 212   6  6  0
315 632   0   0   0   0  0  0
316 314   2   1 213   3  0  1
317 1054   0   4 214   6  2  0
318 632   0   0   0   0  0  0
319 314  14   1 215   3  0  1
[RF]
1      46.4204 1 2 0 100 0 0.523599
2      46.4204 1 2 0 100 0 5.75959
3      46.4204 1 2 0 100 0 5.58505
4      46.4204 1 2 0 100 0 0
5      46.4204 1 2 0 100 0 1.5708
6      46.4204 1 2 0 100 0 4.01426
7      46.4204 1 2 0 100 0 1.0472
8      46.4204 1 2 0 100 0 5.23599
9      46.4204 1 2 0 100 0 3.66519
10      46.4204 1 2 0 100 0 4.18879
11      46.4204 1 2 0 100 0 4.71239
12      46.4204 1 2 0 100 0 2.44346
13      46.4204 1 2 0 100 0 0.872665
14      46.4204 1 2 0 100 0 2.0944
15      46.4204 1 2 0 100 0 3.14159
16      46.4204 1 2 0 100 0 2.61799

# Format of arbitrary gradients:
#   time_shape_id of 0 means default timing (stepping with grad_raster starting at 1/2 of grad_raster)
# id amplitude amp_shape_id time_shape_id delay
# ..      Hz/m       ..         ..          us
[GRADIENTS]
1  1.29841e+06 3 0 2660
2  1.29168e+06 4 0 2660
3 -1.43772e+06 5 0 0
4      -111112 6 0 6300
5 -1.29168e+06 7 0 10160
6 -1.43772e+06 8 0 10160
7   1.2715e+06 9 0 2660
8  -1.2715e+06 10 0 10160
9  1.25131e+06 11 0 2660
10 -1.25131e+06 12 0 10160
11  1.23113e+06 13 0 2660
12 -1.23113e+06 14 0 10160
13  1.21095e+06 15 0 2660
14 -1.21095e+06 16 0 10160
15  1.19077e+06 17 0 2660
16 -1.19077e+06 18 0 10160
17  1.17058e+06 19 0 2660
18 -1.17058e+06 20 0 10160
19   1.1504e+06 21 0 2660
20  -1.1504e+06 22 0 10160
21  1.13022e+06 23 0 2660
22 -1.13022e+06 24 0 10160
23  1.11004e+06 25 0 2660
24 -1.11004e+06 26 0 10160
25  1.08985e+06 27 0 2660
26 -1.08985e+06 28 0 10160
27  1.06967e+06 29 0 2660
28 -1.06967e+06 30 0 10160
29  1.04949e+06 31 0 2660
30 -1.04949e+06 32 0 10160
31  1.02931e+06 33 0 2660
32 -1.02931e+06 34 0 10160
33  1.00912e+06 35 0 2660
34 -1.00912e+06 36 0 10160
35       988942 37 0 2660
36      -988942 38 0 10160
37       968760 39 0 2660
38      -968760 40 0 10160
39       948577 41 0 2660
40      -948577 41 0 10160
41       928395 42 0 2660
42      -928395 42 0 10160
43       908212 43 0 2660
44      -908212 44 0 10160
45       888030 45 0 2660
46      -888030 46 0 10160
47       867847 47 0 2660
48      -867847 47 0 10160
49       847665 48 0 2660
50      -847665 49 0 10160
51       827482 50 0 2660
52      -827482 51 0 10160
53       807300 52 0 2660
54      -807300 53 0 10160
55       787117 54 0 2660
56      -787117 55 0 10160
57       766935 56 0 2660
58      -766935 56 0 10160
59       746752 57 0 2660
60      -746752 58 0 10160
61       726570 59 0 2660
62      -726570 60 0 10160
63       706387 61 0 2660
64      -706387 62 0 10160
65       686205 63 0 2660
66      -686205 64 0 10160
67       666022 65 0 2660
68      -666022 66 0 10160
69       645840 67 0 2660
70      -645840 68 0 10160
71       625657 69 0 2660
72      -625657 69 0 10160
73       605475 70 0 2660
74      -605475 71 0 10160
75       585292 72 0 2660
76      -585292 73 0 10160
77       565110 74 0 2660
78      -565110 75 0 10160
79       544927 76 0 2660
80      -544927 77 0 10160
81       524745 78 0 2660
82      -524745 79 0 10160
83       504562 80 0 2660
84      -504562 81 0 10160
85       484380 82 0 2660
86      -484380 83 0 10160
87       464197 3 0 2660
88      -464197 3 0 10160
89       444015 84 0 2660
90      -444015 85 0 10160
91       423832 86 0 2660
92      -423832 87 0 10160
93       403650 88 0 2660
94      -403650 89 0 10160
95       383467 90 0 2660
96      -383467 91 0 10160
97       363285 92 0 2660
98      -363285 93 0 10160
99       343102 94 0 2660
100      -343102 95 0 10160
101       322920 96 0 2660
102      -322920 97 0 10160
103       302737 98 0 2660
104      -302737 98 0 10160
105       282555 99 0 2660
106      -282555 100 0 10160
107       262372 101 0 2660
108      -262372 102 0 10160
109       242190 103 0 2660
110      -242190 104 0 10160
111       222007 105 0 2660
112      -222007 106 0 10160
113       201825 107 0 2660
114      -201825 108 0 10160
115       181642 109 0 2660
116      -181642 110 0 10160
117       161460 111 0 2660
118      -161460 112 0 10160
119       141277 113 0 2660
120      -141277 113 0 10160
121       121095 114 0 2660
122      -121095 114 0 10160
123       100912 115 0 2660
124      -100912 115 0 10160
125        80730 116 0 2660
126       -80730 116 0 10160
127      60547.5 117 0 2660
128     -60547.5 117 0 10160
129        40365 118 0 2660
130       -40365 119 0 10160
131      20182.5 120 0 2660
132     -20182.5 120 0 10160
133     -20182.5 120 0 2660
134      20182.5 120 0 10160
135       -40365 118 0 2660
136        40365 119 0 10160
137     -60547.5 117 0 2660
138      60547.5 117 0 10160
139       -80730 116 0 2660
140        80730 116 0 10160
141      -100912 115 0 2660
142       100912 115 0 10160
143      -121095 114 0 2660
144       121095 114 0 10160
145      -141277 113 0 2660
146       141277 113 0 10160
147      -161460 111 0 2660
148       161460 112 0 10160
149      -181642 109 0 2660
150       181642 110 0 10160
151      -201825 107 0 2660
152       201825 108 0 10160
153      -222007 105 0 2660
154       222007 106 0 10160
155      -242190 103 0 2660
156       242190 104 0 10160
157      -262372 101 0 2660
158       262372 102 0 10160
159      -282555 99 0 2660
160       282555 100 0 10160
161      -302737 98 0 2660
162       302737 98 0 10160
163      -322920 96 0 2660
164       322920 97 0 10160
165      -343102 94 0 2660
166       343102 95 0 10160
167      -363285 92 0 2660
168       363285 93 0 10160
169      -383467 90 0 2660
170       383467 91 0 10160
171      -403650 88 0 2660
172       403650 89 0 10160
173      -423832 86 0 2660
174       423832 87 0 10160
175      -444015 84 0 2660
176       444015 85 0 10160
177      -464197 3 0 2660
178       464197 3 0 10160
179      -484380 82 0 2660
180       484380 83 0 10160
181      -504562 80 0 2660
182       504562 81 0 10160
183      -524745 78 0 2660
184       524745 79 0 10160
185      -544927 76 0 2660
186       544927 77 0 10160
187      -565110 74 0 2660
188       565110 75 0 10160
189      -585292 72 0 2660
190       585292 73 0 10160
191      -605475 70 0 2660
192       605475 71 0 10160
193      -625657 69 0 2660
194       625657 69 0 10160
195      -645840 67 0 2660
196       645840 68 0 10160
197      -666022 65 0 2660
198       666022 66 0 10160
199      -686205 63 0 2660
200       686205 64 0 10160
201      -706387 61 0 2660
202       706387 62 0 10160
203      -726570 59 0 2660
204       726570 60 0 10160
205      -746752 57 0 2660
206       746752 58 0 10160
207      -766935 56 0 2660
208       766935 56 0 10160
209      -787117 54 0 2660
210       787117 55 0 10160
211      -807300 52 0 2660
212       807300 53 0 10160
213      -827482 50 0 2660
214       827482 51 0 10160
215      -847665 48 0 2660
216       847665 49 0 10160
217      -867847 47 0 2660
218       867847 47 0 10160
219      -888030 45 0 2660
220       888030 46 0 10160
221      -908212 43 0 2660
222       908212 44 0 10160
223      -928395 42 0 2660
224       928395 42 0 10160
225      -948577 41 0 2660
226       948577 41 0 10160
227      -968760 39 0 2660
228       968760 40 0 10160
229      -988942 37 0 2660
230       988942 38 0 10160
231 -1.00912e+06 35 0 2660
232  1.00912e+06 36 0 10160
233 -1.02931e+06 33 0 2660
234  1.02931e+06 34 0 10160
235 -1.04949e+06 31 0 2660
236  1.04949e+06 32 0 10160
237 -1.06967e+06 29 0 2660
238  1.06967e+06 30 0 10160
239 -1.08985e+06 27 0 2660
240  1.08985e+06 28 0 10160
241 -1.11004e+06 25 0 2660
242  1.11004e+06 26 0 10160
243 -1.13022e+06 23 0 2660
244  1.13022e+06 24 0 10160
245  -1.1504e+06 21 0 2660
246   1.1504e+06 22 0 10160
247 -1.17058e+06 19 0 2660
248  1.17058e+06 20 0 10160
249 -1.19077e+06 17 0 2660
250  1.19077e+06 18 0 10160
251 -1.21095e+06 15 0 2660
252  1.21095e+06 16 0 10160
253 -1.23113e+06 13 0 2660
254  1.23113e+06 14 0 10160
255 -1.25131e+06 11 0 2660
256  1.25131e+06 12 0 10160
257  -1.2715e+06 9 0 2660
258   1.2715e+06 10 0 10160

# Format of ADC events:
# id num dwell delay freq phase
# ..  ..    ns    us   Hz   rad
[ADC]
1 256 15000 6320 0 0.523599
2 256 15000 6320 0 5.75959
3 256 15000 6320 0 5.58505
4 256 15000 6320 0 0
5 256 15000 6320 0 1.5708
6 256 15000 6320 0 4.01426
7 256 15000 6320 0 1.0472
8 256 15000 6320 0 5.23599
9 256 15000 6320 0 3.66519
10 256 15000 6320 0 4.18879
11 256 15000 6320 0 4.71239
12 256 15000 6320 0 2.44346
13 256 15000 6320 0 0.872665
14 256 15000 6320 0 2.0944
15 256 15000 6320 0 3.14159
16 256 15000 6320 0 2.61799

# Format of extension lists:
# id type ref next_id
# next_id of 0 terminates the list
# Extension list is followed by extension specifications
[EXTENSIONS]
1 1 1 0

# Extension specification for digital output and input triggers:
# id type channel delay (us) duration (us)
extension TRIGGERS 1
1 1 1 0 10

# Sequence Shapes
[SHAPES]

shape_id 1
num_samples 512
0
0
30
0.0048309
0
0
21
-0.0048309
0
0
13
0.0048309
0
0
1
0.0048309
0
0
1
0.0096619
0
0
1
0.0048309
0
0
1
0.0096618
0
0
1
0.0144928
0
0
1
0.0096618
0
0
1
0.0144928
0
0
1
0.0144927
0
0
1
0.0193237
0
0
1
0.0144927
0
0
1
0.0241546
0
0
1
0.0193237
0
0
1
0.0241546
0
0
1
0.0241546
0
0
1
0.0241546
0
0
1
0.0289855
0
0
1
0.0289855
0
0
1
0.0289855
0
0
1
0.0289855
0
0
1
0.0338164
0
0
1
0.0289855
0
0
1
0.0338165
0
0
1
0.0338164
0
0
1
0.0338164
0
0
1
0.0338164
0
0
1
0.0338165
0
0
1
0.0338164
0
0
1
0.0338164
0
0
1
0.0338164
0
0
1
0.0338165
0
0
1
0.0289855
0
0
1
0.0289855
0
0
1
0.0289855
0
0
1
0.0289855
0
0
1
0.0241546
0
0
1
0.0241546
0
0
1
0.0241546
0
0
1
0.0193236
0
0
1
0.0193237
0
0
1
0.0144928
0
0
1
0.0144927
0
0
1
0.0096618
0
0
1
0.004831
0
0
1
0.0096618
0
0
13
-0.0096618
0
0
1
-0.004831
0
0
1
-0.0096618
0
0
1
-0.0144927
0
0
1
-0.0144928
0
0
1
-0.0193237
0
0
1
-0.0193236
0
0
1
-0.0241546
0
0
1
-0.0241546
0
0
1
-0.0241546
0
0
1
-0.0289855
0
0
1
-0.0289855
0
0
1
-0.0289855
0
0
1
-0.0289855
0
0
1
-0.0338165
0
0
1
-0.0338164
0
0
1
-0.0338164
0
0
1
-0.0338164
0
0
1
-0.0338165
0
0
1
-0.0338164
0
0
1
-0.0338164
0
0
1
-0.0338164
0
0
1
-0.0338165
0
0
1
-0.0289855
0
0
1
-0.0338164
0
0
1
-0.0289855
0
0
1
-0.0289855
0
0
1
-0.0289855
0
0
1
-0.0289855
0
0
1
-0.0241546
0
0
1
-0.0241546
0
0
1
-0.0241546
0
0
1
-0.0193237
0
0
1
-0.0241546
0
0
1
-0.0144927
0
0
1
-0.0193237
0
0
1
-0.0144927
0
0
1
-0.0144928
0
0
1
-0.0096618
0
0
1
-0.0144928
0
0
1
-0.0096618
0
0
1
-0.0048309
0
0
1
-0.0096619
0
0
1
-0.0048309
0
0
1
-0.0048309
0
0
13
0.0048309
0
0
21
-0.0048309
0
0
29

shape_id 2
num_samples 512
0
0
6
0.5
0
0
53
-0.5
0
0
381
0.5
0
0
53
-0.5
0
0
5

shape_id 3
num_samples 32
0.0322580645
0.0967741935
0.161290323
0.225806452
0.290322581
0.35483871
0.419354839
0.483870968
0.548387097
0.612903226
0.677419355
0.741935484
0.806451613
0.870967742
0.935483871
1
1
0.935483871
0.870967742
0.806451613
0.741935484
0.677419355
0.612903226
0.548387097
0.483870968
0.419354839
0.35483871
0.290322581
0.225806452
0.161290323
0.0967741935
0.0322580645

shape_id 4
num_samples 32
0.032258
0.0645162
0.0645161
0.0645161
2
0.0645162
0.0645161
0.0645162
0.0645161
0.0645161
2
0.0645162
0.0645161
0.0645161
0
1e-07
-0.0645161
-0.0645162
-0.0645161
-0.0645161
1
-0.0645162
-0.0645161
-0.0645161
1
-0.0645162
-0.0645161
-0.0645161
1
-0.0645162
-0.0645161

shape_id 5
num_samples 314
0.0073359
0.0146718
0.0146718
1
0.0146719
0.0146718
0.0146718
3
0.0073359
0
0
253
-0.0073359
-0.0146718
-0.0146718
6
-0.0146719
-0.0343629
-0.0540541
-0.054054
-0.054054
0
-0.0540541
-0.0540541
0
-0.054054
-0.0540541
-0.054054
-0.0540541
-0.0540541
0
-0.054054
-0.054054
0
-0.0540541
-0.0540541
0
-0.054054
-0.0540541
-0.054054
-0.0540541
0
0.0540541
0.054054
0.0540541
0.054054
0.0540541
0.054054
0.0540541
0.0540541
0
0.054054
0.054054
0
0.0540541
0.0540541
1
0.054054
0.054054
0
0.0540541
0.0540541
0
0.054054

shape_id 6
num_samples 388
0.2499998
0.5
0.2500002
0
0
381
-0.2500002
-0.5

shape_id 7
num_samples 32
0.0322580347
0.0967741702
0.161290306
0.225806441
0.290322576
0.354838679
0.419354781
0.48387095
0.548387085
0.612903188
0.67741929
0.741935458
0.806451594
0.870967696
0.935483799
0.999999967
1
0.935483865
0.870967729
0.806451594
0.741935458
0.677419323
0.612903188
0.548387085
0.483870983
0.419354814
0.354838679
0.290322576
0.225806474
0.161290306
0.0967741702
0.0322580677

shape_id 8
num_samples 38
0.0270270198
0.0810810595
0.135135099
0.189189139
0.243243238
0.297297277
0.351351317
0.405405357
0.459459455
0.513513495
0.567567535
0.621621634
0.675675673
0.729729713
0.783783753
0.837837851
0.891891891
0.945945931
0.99999997
1
0.945945931
0.891891891
0.837837851
0.783783812
0.729729713
0.675675673
0.621621634
0.567567594
0.513513495
0.459459426
0.405405386
0.351351347
0.297297307
0.243243208
0.189189168
0.135135129
0.0810810891
0.0270269902

shape_id 9
num_samples 32
0.0322580494
0.0967741817
0.161290314
0.225806446
0.290322545
0.354838644
0.41935481
0.483870942
0.548387074
0.612903206
0.677419339
0.741935471
0.806451603
0.870967735
0.935483868
1
0.999999967
0.935483868
0.870967769
0.806451603
0.741935471
0.677419339
0.612903206
0.548387074
0.483870975
0.419354877
0.354838711
0.290322578
0.225806446
0.161290314
0.0967742152
0.0322581164

shape_id 10
num_samples 32
0.0322580505
0.0967741849
0.161290319
0.22580642
0.290322521
0.354838689
0.419354824
0.483870958
0.548387092
0.612903227
0.677419328
0.741935429
0.806451597
0.870967731
0.935483866
1
1
0.935483899
0.870967798
0.80645163
0.741935496
0.677419361
0.612903227
0.548387092
0.483870958
0.419354824
0.354838723
0.290322622
0.225806454
0.161290319
0.0967741849
0.0322580505

shape_id 11
num_samples 32
0.0322580645
0.0967741935
0.161290323
0.225806452
0.290322581
0.35483871
0.419354839
0.483870968
0.548387097
0.612903226
0.677419355
0.741935484
0.806451613
0.870967742
0.935483871
1
0.999999966
0.935483837
0.870967708
0.806451579
0.74193545
0.677419321
0.612903192
0.548387063
0.483870934
0.419354805
0.354838676
0.290322547
0.225806418
0.161290289
0.0967741595
0.0322580305

shape_id 12
num_samples 32
0.0322580645
0.0967741935
0.161290323
0.225806452
0.290322581
0.35483871
0.419354839
0.483870968
0.548387097
0.612903226
0.677419355
0.741935484
0.806451613
0.870967742
0.935483871
1
0.999999966
0.935483837
0.870967708
0.806451613
0.74193545
0.677419321
0.612903192
0.548387063
0.483870934
0.419354805
0.354838676
0.290322547
0.225806418
0.161290289
0.0967741595
0.0322580305

shape_id 13
num_samples 32
0.0322580444
0.0967741679
0.161290291
0.225806415
0.290322538
0.354838662
0.419354785
0.483870909
0.548387032
0.612903225
0.677419348
0.741935472
0.806451595
0.870967719
0.935483842
0.999999965
1
0.935483877
0.870967753
0.80645163
0.741935506
0.677419383
0.612903259
0.548387136
0.483870943
0.41935482
0.354838696
0.290322573
0.225806449
0.161290326
0.0967742025
0.032258079

shape_id 14
num_samples 32
0.0322580444
0.0967741679
0.161290291
0.225806415
0.290322538
0.354838662
0.419354785
0.483870909
0.548387032
0.612903225
0.677419348
0.741935472
0.806451595
0.870967719
0.935483842
0.999999965
1
0.935483877
0.870967753
0.80645156
0.741935437
0.677419314
0.61290319
0.548387067
0.483870943
0.41935482
0.354838696
0.290322573
0.225806449
0.161290326
0.0967742025
0.0322580099

shape_id 15
num_samples 32
0.0322581
0.0645161
0.0645161
2
0.0645162
0.0645161
0.0645161
0
0.0645162
0.0645161
0.0645161
1
0.0645162
0.0645161
0.0645161
1
1e-07
-0.0645162
-0.0645161
-0.0645161
2
-0.0645162
-0.0645161
-0.0645162
-0.0645161
-0.0645161
2
-0.0645162
-0.0645161
-0.0645162

shape_id 16
num_samples 32
0.0322581
0.0645161
0.0645161
2
0.0645162
0.0645161
0.0645161
0
0.0645162
0.0645161
0.0645161
1
0.0645162
0.0645161
0.0645161
1
1e-07
-0.0645162
-0.0645161
-0.0645161
2
-0.0645162
-0.0645161
-0.0645162
-0.0645161
-0.0645161
2
-0.0645162
-0.0645162
0
-0.0645161

shape_id 17
num_samples 32
0.032258
0.0645162
0.0645161
0.0645161
2
0.0645162
0.0645161
0.0645162
0.0645161
0.0645161
0
0.0645162
0.0645161
0.0645161
2
1e-07
-0.0645161
-0.0645161
1
-0.0645162
-0.0645161
-0.0645162
-0.0645161
-0.0645161
2
-0.0645162
-0.0645161
-0.0645161
1
-0.0645162

shape_id 18
num_samples 32
0.032258
0.0645162
0.0645161
0.0645161
2
0.0645162
0.0645161
0.0645162
0.0645161
0.0645161
1
0.0645162
0.0645161
0.0645161
1
1e-07
-0.0645161
-0.0645161
1
-0.0645162
-0.0645161
-0.0645162
-0.0645161
-0.0645161
2
-0.0645162
-0.0645161
-0.0645161
1
-0.0645162

shape_id 19
num_samples 32
0.032258054
0.0967741619
0.16129027
0.22580645
0.290322558
0.354838666
0.419354774
0.483870955
0.548387063
0.612903171
0.677419351
0.741935496
0.806451604
0.870967711
0.935483819
1
0.999999964
0.935483819
0.870967711
0.806451604
0.741935496
0.677419315
0.612903171
0.548387063
0.483870955
0.419354847
0.354838666
0.290322558
0.22580645
0.16129027
0.0967741619
0.032258054

shape_id 20
num_samples 32
0.0322580551
0.0967741654
0.161290276
0.225806459
0.290322569
0.354838679
0.419354789
0.483870972
0.548387083
0.612903193
0.677419376
0.741935486
0.806451596
0.870967707
0.93548389
1
1
0.935483853
0.870967743
0.80645156
0.74193545
0.67741934
0.612903229
0.548387046
0.4838709
0.419354789
0.354838679
0.290322569
0.225806386
0.161290239
0.096774129
0.0322580188

shape_id 21
num_samples 32
0.0322580347
0.096774178
0.161290321
0.225806428
0.290322534
0.354838714
0.419354821
0.483870927
0.548387108
0.612903214
0.67741932
0.741935427
0.806451607
0.87096775
0.935483857
0.999999963
1
0.935483857
0.870967713
0.806451607
0.741935501
0.67741932
0.612903214
0.548387108
0.483870927
0.419354821
0.354838714
0.290322534
0.225806428
0.161290321
0.096774141
0.0322580347

shape_id 22
num_samples 32
0.0322580347
0.096774178
0.161290284
0.225806391
0.290322571
0.354838677
0.419354784
0.483870964
0.548387071
0.612903177
0.677419357
0.741935464
0.80645157
0.87096775
0.935483857
0.999999963
1
0.935483857
0.870967713
0.80645157
0.741935427
0.67741932
0.612903214
0.548387033
0.483870927
0.419354821
0.35483864
0.290322534
0.225806428
0.161290247
0.096774141
0.0322580347

shape_id 23
num_samples 32
0.0322580499
0.0967741875
0.161290287
0.225806387
0.290322562
0.3548387
0.4193548
0.4838709
0.548387075
0.612903212
0.677419312
0.741935412
0.806451512
0.870967687
0.935483825
0.999999925
1
0.9354839
0.8709678
0.806451625
0.741935488
0.67741935
0.61290325
0.54838715
0.483870975
0.419354837
0.354838738
0.290322638
0.225806463
0.161290325
0.0967742251
0.0322581253

shape_id 24
num_samples 32
0.0322580499
0.0967741875
0.161290287
0.225806387
0.290322562
0.3548387
0.4193548
0.4838709
0.548387075
0.612903212
0.67741935
0.74193545
0.80645155
0.870967725
0.935483862
0.999999962
1
0.9354839
0.8709678
0.806451625
0.741935488
0.67741935
0.61290325
0.54838715
0.483870975
0.419354837
0.354838738
0.290322638
0.225806463
0.161290325
0.0967742251
0.0322581253

shape_id 25
num_samples 32
0.0322580274
0.0967741589
0.16129029
0.225806422
0.290322553
0.354838685
0.419354816
0.483870948
0.548387079
0.612903211
0.677419342
0.741935474
0.806451605
0.870967737
0.935483868
1
0.999999962
0.93548383
0.870967699
0.806451567
0.741935436
0.677419304
0.612903173
0.548387041
0.48387091
0.419354778
0.354838647
0.290322515
0.225806384
0.161290252
0.0967741205
0.032257989

shape_id 26
num_samples 32
0.0322580274
0.0967741589
0.16129029
0.225806422
0.290322553
0.354838685
0.419354816
0.483870948
0.548387079
0.612903211
0.677419342
0.741935474
0.806451605
0.870967737
0.935483868
1
0.999999962
0.93548383
0.870967699
0.806451605
0.741935512
0.677419342
0.612903211
0.548387079
0.483870948
0.419354816
0.354838685
0.290322553
0.225806422
0.16129029
0.0967741589
0.0322580274

shape_id 27
num_samples 32
0.0322580431
0.0967741683
0.161290294
0.225806419
0.290322544
0.354838669
0.419354795
0.48387092
0.548387045
0.61290317
0.677419296
0.741935421
0.806451546
0.870967671
0.935483797
0.999999922
1
0.935483875
0.870967749
0.806451624
0.741935499
0.677419374
0.612903248
0.548387123
0.483870998
0.419354873
0.354838747
0.290322622
0.225806497
0.161290372
0.0967742465
0.0322581212

shape_id 28
num_samples 32
0.0322580431
0.0967741683
0.161290294
0.225806419
0.290322544
0.354838669
0.419354795
0.48387092
0.548387045
0.61290317
0.677419296
0.741935421
0.806451546
0.870967671
0.935483797
0.999999922
1
0.935483875
0.870967749
0.806451624
0.741935499
0.677419374
0.612903248
0.548387123
