# Pulseq sequence file
# Created by PyPulseq

[VERSION]
major 1
minor 4
revision 2

[DEFINITIONS]
AdcRasterTime 1e-07 
BlockDurationRaster 1e-05 
GradientRasterTime 1e-05 
Name MiniFLASH.seq 
RadiofrequencyRasterTime 5e-06 
TotalDuration 2.56 

# Format of blocks:
# NUM DUR RF  GX  GY  GZ  ADC  EXT
[BLOCKS]
  1 944   1   3   2   1  0  1
  2 1056   0   4   5   6  1  0
  3 944   2   3   7   1  0  1
  4 1056   0   4   8   6  2  0
  5 944   3   3   9   1  0  1
  6 1056   0   4  10   6  3  0
  7 944   4   3  11   1  0  1
  8 1056   0   4  12   6  4  0
  9 944   5   3  13   1  0  1
 10 1056   0   4  14   6  5  0
 11 944   6   3  15   1  0  1
 12 1056   0   4  16   6  6  0
 13 944   7   3  17   1  0  1
 14 1056   0   4  18   6  7  0
 15 944   8   3  19   1  0  1
 16 1056   0   4  20   6  8  0
 17 944   9   3  21   1  0  1
 18 1056   0   4  22   6  9  0
 19 944  10   3  23   1  0  1
 20 1056   0   4  24   6 10  0
 21 944  11   3  25   1  0  1
 22 1056   0   4  26   6 11  0
 23 944  12   3  27   1  0  1
 24 1056   0   4  28   6 12  0
 25 944  13   3  29   1  0  1
 26 1056   0   4  30   6 13  0
 27 944  14   3  31   1  0  1
 28 1056   0   4  32   6 14  0
 29 944  15   3  33   1  0  1
 30 1056   0   4  34   6 15  0
 31 944  16   3  35   1  0  1
 32 1056   0   4  36   6 16  0
 33 944  17   3  37   1  0  1
 34 1056   0   4  38   6 17  0
 35 944  18   3  39   1  0  1
 36 1056   0   4  40   6 18  0
 37 944  19   3  41   1  0  1
 38 1056   0   4  42   6 19  0
 39 944  20   3  43   1  0  1
 40 1056   0   4  44   6 20  0
 41 944  21   3  45   1  0  1
 42 1056   0   4  46   6 21  0
 43 944  22   3  47   1  0  1
 44 1056   0   4  48   6 22  0
 45 944  23   3  49   1  0  1
 46 1056   0   4  50   6 23  0
 47 944  24   3  51   1  0  1
 48 1056   0   4  52   6 24  0
 49 944  25   3  53   1  0  1
 50 1056   0   4  54   6 25  0
 51 944  26   3  55   1  0  1
 52 1056   0   4  56   6 26  0
 53 944  27   3  57   1  0  1
 54 1056   0   4  58   6 27  0
 55 944  28   3  59   1  0  1
 56 1056   0   4  60   6 28  0
 57 944  29   3  61   1  0  1
 58 1056   0   4  62   6 29  0
 59 944  30   3  63   1  0  1
 60 1056   0   4  64   6 30  0
 61 944  31   3  65   1  0  1
 62 1056   0   4  66   6 31  0
 63 944  32   3  67   1  0  1
 64 1056   0   4  68   6 32  0
 65 944  33   3  69   1  0  1
 66 1056   0   4  70   6 33  0
 67 944  34   3  71   1  0  1
 68 1056   0   4  72   6 34  0
 69 944  35   3  73   1  0  1
 70 1056   0   4  74   6 35  0
 71 944  36   3  75   1  0  1
 72 1056   0   4  76   6 36  0
 73 944  37   3  77   1  0  1
 74 1056   0   4  78   6 37  0
 75 944  38   3  79   1  0  1
 76 1056   0   4  80   6 38  0
 77 944  39   3  81   1  0  1
 78 1056   0   4  82   6 39  0
 79 944  40   3  83   1  0  1
 80 1056   0   4  84   6 40  0
 81 944  41   3  85   1  0  1
 82 1056   0   4  86   6 41  0
 83 944  42   3  87   1  0  1
 84 1056   0   4  88   6 42  0
 85 944  43   3  89   1  0  1
 86 1056   0   4  90   6 43  0
 87 944  44   3  91   1  0  1
 88 1056   0   4  92   6 44  0
 89 944  45   3  93   1  0  1
 90 1056   0   4  94   6 45  0
 91 944  46   3  95   1  0  1
 92 1056   0   4  96   6 46  0
 93 944  47   3  97   1  0  1
 94 1056   0   4  98   6 47  0
 95 944  48   3  99   1  0  1
 96 1056   0   4 100   6 48  0
 97 944  49   3 101   1  0  1
 98 1056   0   4 102   6 49  0
 99 944  50   3 103   1  0  1
100 1056   0   4 104   6 50  0
101 944  51   3 105   1  0  1
102 1056   0   4 106   6 51  0
103 944  52   3 107   1  0  1
104 1056   0   4 108   6 52  0
105 944  53   3 109   1  0  1
106 1056   0   4 110   6 53  0
107 944  54   3 111   1  0  1
108 1056   0   4 112   6 54  0
109 944  55   3 113   1  0  1
110 1056   0   4 114   6 55  0
111 944  56   3 115   1  0  1
112 1056   0   4 116   6 56  0
113 944  57   3 117   1  0  1
114 1056   0   4 118   6 57  0
115 944  58   3 119   1  0  1
116 1056   0   4 120   6 58  0
117 944  59   3 121   1  0  1
118 1056   0   4 122   6 59  0
119 944  60   3 123   1  0  1
120 1056   0   4 124   6 60  0
121 944  61   3 125   1  0  1
122 1056   0   4 126   6 61  0
123 944  62   3 127   1  0  1
124 1056   0   4 128   6 62  0
125 944  63   3 129   1  0  1
126 1056   0   4 130   6 63  0
127 944  64   3 131   1  0  1
128 1056   0   4 132   6 64  0
129 944  65   3 133   1  0  1
130 1056   0   4 134   6 65  0
131 944  66   3 135   1  0  1
132 1056   0   4 136   6 66  0
133 944  67   3 137   1  0  1
134 1056   0   4 138   6 67  0
135 944  68   3 139   1  0  1
136 1056   0   4 140   6 68  0
137 944  69   3 141   1  0  1
138 1056   0   4 142   6 69  0
139 944  70   3 143   1  0  1
140 1056   0   4 144   6 70  0
141 944  71   3 145   1  0  1
142 1056   0   4 146   6 71  0
143 944  72   3 147   1  0  1
144 1056   0   4 148   6 72  0
145 944  73   3 149   1  0  1
146 1056   0   4 150   6 73  0
147 944  74   3 151   1  0  1
148 1056   0   4 152   6 74  0
149 944  75   3 153   1  0  1
150 1056   0   4 154   6 75  0
151 944  76   3 155   1  0  1
152 1056   0   4 156   6 76  0
153 944  77   3 157   1  0  1
154 1056   0   4 158   6 77  0
155 944  78   3 159   1  0  1
156 1056   0   4 160   6 78  0
157 944  79   3 161   1  0  1
158 1056   0   4 162   6 79  0
159 944  80   3 163   1  0  1
160 1056   0   4 164   6 80  0
161 944  81   3 165   1  0  1
162 1056   0   4 166   6 81  0
163 944  82   3 167   1  0  1
164 1056   0   4 168   6 82  0
165 944  83   3 169   1  0  1
166 1056   0   4 170   6 83  0
167 944  84   3 171   1  0  1
168 1056   0   4 172   6 84  0
169 944  85   3 173   1  0  1
170 1056   0   4 174   6 85  0
171 944  86   3 175   1  0  1
172 1056   0   4 176   6 86  0
173 944  87   3 177   1  0  1
174 1056   0   4 178   6 87  0
175 944  88   3 179   1  0  1
176 1056   0   4 180   6 88  0
177 944  89   3 181   1  0  1
178 1056   0   4 182   6 89  0
179 944  90   3 183   1  0  1
180 1056   0   4 184   6 90  0
181 944  91   3 185   1  0  1
182 1056   0   4 186   6 91  0
183 944  92   3 187   1  0  1
184 1056   0   4 188   6 92  0
185 944  93   3 189   1  0  1
186 1056   0   4 190   6 93  0
187 944  94   3 191   1  0  1
188 1056   0   4 192   6 94  0
189 944  95   3 193   1  0  1
190 1056   0   4 194   6 95  0
191 944  96   3 195   1  0  1
192 1056   0   4 196   6 96  0
193 944  97   3 197   1  0  1
194 1056   0   4 198   6 97  0
195 944  98   3 199   1  0  1
196 1056   0   4 200   6 98  0
197 944  99   3 201   1  0  1
198 1056   0   4 202   6 99  0
199 944 100   3 203   1  0  1
200 1056   0   4 204   6 100  0
201 944 101   3 205   1  0  1
202 1056   0   4 206   6 101  0
203 944 102   3 207   1  0  1
204 1056   0   4 208   6 102  0
205 944 103   3 209   1  0  1
206 1056   0   4 210   6 103  0
207 944 104   3 211   1  0  1
208 1056   0   4 212   6 104  0
209 944 105   3 213   1  0  1
210 1056   0   4 214   6 105  0
211 944 106   3 215   1  0  1
212 1056   0   4 216   6 106  0
213 944 107   3 217   1  0  1
214 1056   0   4 218   6 107  0
215 944 108   3 219   1  0  1
216 1056   0   4 220   6 108  0
217 944 109   3 221   1  0  1
218 1056   0   4 222   6 109  0
219 944 110   3 223   1  0  1
220 1056   0   4 224   6 110  0
221 944 111   3 225   1  0  1
222 1056   0   4 226   6 111  0
223 944 112   3 227   1  0  1
224 1056   0   4 228   6 112  0
225 944 113   3 229   1  0  1
226 1056   0   4 230   6 113  0
227 944 114   3 231   1  0  1
228 1056   0   4 232   6 114  0
229 944 115   3 233   1  0  1
230 1056   0   4 234   6 115  0
231 944 116   3 235   1  0  1
232 1056   0   4 236   6 116  0
233 944 117   3 237   1  0  1
234 1056   0   4 238   6 117  0
235 944 118   3 239   1  0  1
236 1056   0   4 240   6 118  0
237 944 119   3 241   1  0  1
238 1056   0   4 242   6 119  0
239 944 120   3 243   1  0  1
240 1056   0   4 244   6 120  0
241 944 121   3 245   1  0  1
242 1056   0   4 246   6 121  0
243 944 122   3 247   1  0  1
244 1056   0   4 248   6 122  0
245 944 123   3 249   1  0  1
246 1056   0   4 250   6 123  0
247 944 124   3 251   1  0  1
248 1056   0   4 252   6 124  0
249 944 125   3 253   1  0  1
250 1056   0   4 254   6 125  0
251 944 126   3 255   1  0  1
252 1056   0   4 256   6 126  0
253 944 127   3 257   1  0  1
254 1056   0   4 258   6 127  0
255 944 128   3 259   1  0  1
256 1056   0   4 260   6 128  0

# Format of RF events:
# id amplitude mag_id phase_id time_shape_id delay freq phase
# ..        Hz   ....     ....          ....    us   Hz   rad
[RF]
1      46.3027 2 3 0 100 0 13.09
2      46.3027 2 3 0 100 0 18.326
3      46.3027 2 3 0 100 0 24.4346
4      46.3027 2 3 0 100 0 31.4159
5      46.3027 2 3 0 100 0 39.2699
6      46.3027 2 3 0 100 0 47.9966
7      46.3027 2 3 0 100 0 57.5959
8      46.3027 2 3 0 100 0 68.0678
9      46.3027 2 3 0 100 0 79.4125
10      46.3027 2 3 0 100 0 91.6298
11      46.3027 2 3 0 100 0 104.72
12      46.3027 2 3 0 100 0 118.682
13      46.3027 2 3 0 100 0 133.518
14      46.3027 2 3 0 100 0 149.226
15      46.3027 2 3 0 100 0 165.806
16      46.3027 2 3 0 100 0 183.26
17      46.3027 2 3 0 100 0 201.586
18      46.3027 2 3 0 100 0 220.784
19      46.3027 2 3 0 100 0 240.855
20      46.3027 2 3 0 100 0 261.799
21      46.3027 2 3 0 100 0 283.616
22      46.3027 2 3 0 100 0 306.305
23      46.3027 2 3 0 100 0 329.867
24      46.3027 2 3 0 100 0 354.302
25      46.3027 2 3 0 100 0 379.609
26      46.3027 2 3 0 100 0 405.789
27      46.3027 2 3 0 100 0 432.842
28      46.3027 2 3 0 100 0 460.767
29      46.3027 2 3 0 100 0 489.565
30      46.3027 2 3 0 100 0 519.235
31      46.3027 2 3 0 100 0 549.779
32      46.3027 2 3 0 100 0 581.195
33      46.3027 2 3 0 100 0 613.483
34      46.3027 2 3 0 100 0 646.644
35      46.3027 2 3 0 100 0 680.678
36      46.3027 2 3 0 100 0 715.585
37      46.3027 2 3 0 100 0 751.364
38      46.3027 2 3 0 100 0 788.016
39      46.3027 2 3 0 100 0 825.541
40      46.3027 2 3 0 100 0 863.938
41      46.3027 2 3 0 100 0 903.208
42      46.3027 2 3 0 100 0 943.35
43      46.3027 2 3 0 100 0 984.366
44      46.3027 2 3 0 100 0 1026.25
45      46.3027 2 3 0 100 0 1069.01
46      46.3027 2 3 0 100 0 1112.65
47      46.3027 2 3 0 100 0 1157.15
48      46.3027 2 3 0 100 0 1202.53
49      46.3027 2 3 0 100 0 1248.78
50      46.3027 2 3 0 100 0 1295.91
51      46.3027 2 3 0 100 0 1343.9
52      46.3027 2 3 0 100 0 1392.77
53      46.3027 2 3 0 100 0 1442.51
54      46.3027 2 3 0 100 0 1493.13
55      46.3027 2 3 0 100 0 1544.62
56      46.3027 2 3 0 100 0 1596.98
57      46.3027 2 3 0 100 0 1650.21
58      46.3027 2 3 0 100 0 1704.31
59      46.3027 2 3 0 100 0 1759.29
60      46.3027 2 3 0 100 0 1815.14
61      46.3027 2 3 0 100 0 1871.87
62      46.3027 2 3 0 100 0 1929.46
63      46.3027 2 3 0 100 0 1987.93
64      46.3027 2 3 0 100 0 2047.27
65      46.3027 2 3 0 100 0 2107.49
66      46.3027 2 3 0 100 0 2168.57
67      46.3027 2 3 0 100 0 2230.53
68      46.3027 2 3 0 100 0 2293.36
69      46.3027 2 3 0 100 0 2357.07
70      46.3027 2 3 0 100 0 2421.64
71      46.3027 2 3 0 100 0 2487.09
72      46.3027 2 3 0 100 0 2553.42
73      46.3027 2 3 0 100 0 2620.61
74      46.3027 2 3 0 100 0 2688.68
75      46.3027 2 3 0 100 0 2757.62
76      46.3027 2 3 0 100 0 2827.43
77      46.3027 2 3 0 100 0 2898.12
78      46.3027 2 3 0 100 0 2969.68
79      46.3027 2 3 0 100 0 3042.11
80      46.3027 2 3 0 100 0 3115.41
81      46.3027 2 3 0 100 0 3189.59
82      46.3027 2 3 0 100 0 3264.64
83      46.3027 2 3 0 100 0 3340.56
84      46.3027 2 3 0 100 0 3417.35
85      46.3027 2 3 0 100 0 3495.02
86      46.3027 2 3 0 100 0 3573.56
87      46.3027 2 3 0 100 0 3652.97
88      46.3027 2 3 0 100 0 3733.26
89      46.3027 2 3 0 100 0 3814.42
90      46.3027 2 3 0 100 0 3896.45
91      46.3027 2 3 0 100 0 3979.35
92      46.3027 2 3 0 100 0 4063.13
93      46.3027 2 3 0 100 0 4147.77
94      46.3027 2 3 0 100 0 4233.3
95      46.3027 2 3 0 100 0 4319.69
96      46.3027 2 3 0 100 0 4406.96
97      46.3027 2 3 0 100 0 4495.1
98      46.3027 2 3 0 100 0 4584.11
99      46.3027 2 3 0 100 0 4673.99
100      46.3027 2 3 0 100 0 4764.75
101      46.3027 2 3 0 100 0 4856.38
102      46.3027 2 3 0 100 0 4948.88
103      46.3027 2 3 0 100 0 5042.26
104      46.3027 2 3 0 100 0 5136.5
105      46.3027 2 3 0 100 0 5231.62
106      46.3027 2 3 0 100 0 5327.62
107      46.3027 2 3 0 100 0 5424.48
108      46.3027 2 3 0 100 0 5522.22
109      46.3027 2 3 0 100 0 5620.83
110      46.3027 2 3 0 100 0 5720.32
111      46.3027 2 3 0 100 0 5820.67
112      46.3027 2 3 0 100 0 5921.9
113      46.3027 2 3 0 100 0 6024
114      46.3027 2 3 0 100 0 6126.98
115      46.3027 2 3 0 100 0 6230.83
116      46.3027 2 3 0 100 0 52.3599
117      46.3027 2 3 0 100 0 157.952
118      46.3027 2 3 0 100 0 264.417
119      46.3027 2 3 0 100 0 371.755
120      46.3027 2 3 0 100 0 479.966
121      46.3027 2 3 0 100 0 589.049
122      46.3027 2 3 0 100 0 699.004
123      46.3027 2 3 0 100 0 809.833
124      46.3027 2 3 0 100 0 921.534
125      46.3027 2 3 0 100 0 1034.11
126      46.3027 2 3 0 100 0 1147.55
127      46.3027 2 3 0 100 0 1261.87
128      46.3027 2 3 0 100 0 1377.06

# Format of arbitrary gradients:
#   time_shape_id of 0 means default timing (stepping with grad_raster starting at 1/2 of grad_raster)
# id amplitude amp_shape_id time_shape_id delay
# ..      Hz/m       ..         ..          us
[GRADIENTS]
1 -1.43768e+06 1 0 0

# Format of trapezoid gradients:
# id amplitude rise flat fall delay
# ..      Hz/m   us   us   us    us
[TRAP]
 2  1.33348e+06 160    0 160 2660
 3  1.34029e+06 160    0 160 2660
 4      -111123  20 3840  20   0
 5 -1.33348e+06 160    0 160 3860
 6 -1.47654e+06 190    0 190 3860
 7  1.31262e+06 160    0 160 2660
 8 -1.31262e+06 160    0 160 3860
 9  1.29176e+06 160    0 160 2660
10 -1.29176e+06 160    0 160 3860
11  1.27089e+06 160    0 160 2660
12 -1.27089e+06 160    0 160 3860
13  1.25003e+06 160    0 160 2660
14 -1.25003e+06 160    0 160 3860
15  1.22917e+06 160    0 160 2660
16 -1.22917e+06 160    0 160 3860
17  1.20831e+06 160    0 160 2660
18 -1.20831e+06 160    0 160 3860
19  1.18744e+06 160    0 160 2660
20 -1.18744e+06 160    0 160 3860
21  1.16658e+06 160    0 160 2660
22 -1.16658e+06 160    0 160 3860
23  1.14572e+06 160    0 160 2660
24 -1.14572e+06 160    0 160 3860
25  1.12486e+06 160    0 160 2660
26 -1.12486e+06 160    0 160 3860
27    1.104e+06 160    0 160 2660
28   -1.104e+06 160    0 160 3860
29  1.08313e+06 160    0 160 2660
30 -1.08313e+06 160    0 160 3860
31   1.0627e+06 160    0 160 2660
32  -1.0627e+06 160    0 160 3860
33  1.04183e+06 160    0 160 2660
34 -1.04183e+06 160    0 160 3860
35  1.02097e+06 160    0 160 2660
36 -1.02097e+06 160    0 160 3860
37  1.00011e+06 160    0 160 2660
38 -1.00011e+06 160    0 160 3860
39       979248 160    0 160 2660
40      -979248 160    0 160 3860
41       958386 160    0 160 2660
42      -958386 160    0 160 3860
43       937524 160    0 160 2660
44      -937524 160    0 160 3860
45       916661 160    0 160 2660
46      -916661 160    0 160 3860
47       895799 160    0 160 2660
48      -895799 160    0 160 3860
49       874937 160    0 160 2660
50      -874937 160    0 160 3860
51       854075 160    0 160 2660
52      -854075 160    0 160 3860
53       833212 160    0 160 2660
54      -833212 160    0 160 3860
55       812350 160    0 160 2660
56      -812350 160    0 160 3860
57       791488 160    0 160 2660
58      -791488 160    0 160 3860
59       771051 160    0 160 2660
60      -771051 160    0 160 3860
61       750189 160    0 160 2660
62      -750189 160    0 160 3860
63       729327 160    0 160 2660
64      -729327 160    0 160 3860
65       708465 160    0 160 2660
66      -708465 160    0 160 3860
67       687602 160    0 160 2660
68      -687602 160    0 160 3860
69       666740 160    0 160 2660
70      -666740 160    0 160 3860
71       645878 160    0 160 2660
72      -645878 160    0 160 3860
73       625016 160    0 160 2660
74      -625016 160    0 160 3860
75       604153 160    0 160 2660
76      -604153 160    0 160 3860
77       583291 160    0 160 2660
78      -583291 160    0 160 3860
79       562429 160    0 160 2660
80      -562429 160    0 160 3860
81       541567 160    0 160 2660
82      -541567 160    0 160 3860
83       520704 160    0 160 2660
84      -520704 160    0 160 3860
85       499842 160    0 160 2660
86      -499842 160    0 160 3860
87       478980 160    0 160 2660
88      -478980 160    0 160 3860
89       458544 160    0 160 2660
90      -458544 160    0 160 3860
91       437681 160    0 160 2660
92      -437681 160    0 160 3860
93       416819 160    0 160 2660
94      -416819 160    0 160 3860
95       395957 160    0 160 2660
96      -395957 160    0 160 3860
97       375095 160    0 160 2660
98      -375095 160    0 160 3860
99       354232 160    0 160 2660
100      -354232 160    0 160 3860
101       333370 160    0 160 2660
102      -333370 160    0 160 3860
103       312508 160    0 160 2660
104      -312508 160    0 160 3860
105       291646 160    0 160 2660
106      -291646 160    0 160 3860
107       270783 160    0 160 2660
108      -270783 160    0 160 3860
109       249921 160    0 160 2660
110      -249921 160    0 160 3860
111       229059 160    0 160 2660
112      -229059 160    0 160 3860
113       208197 160    0 160 2660
114      -208197 160    0 160 3860
115       187334 160    0 160 2660
116      -187334 160    0 160 3860
117       166472 160    0 160 2660
118      -166472 160    0 160 3860
119       146036 160    0 160 2660
120      -146036 160    0 160 3860
121       125173 160    0 160 2660
122      -125173 160    0 160 3860
123       104311 160    0 160 2660
124      -104311 160    0 160 3860
125        83449 160    0 160 2660
126       -83449 160    0 160 3860
127      62586.7 160    0 160 2660
128     -62586.7 160    0 160 3860
129      41724.5 160    0 160 2660
130     -41724.5 160    0 160 3860
131      20862.2 160    0 160 2660
132     -20862.2 160    0 160 3860
133           -0 160    0 160 2660
134           -0 160    0 160 3860
135     -20862.2 160    0 160 2660
136      20862.2 160    0 160 3860
137     -41724.5 160    0 160 2660
138      41724.5 160    0 160 3860
139     -62586.7 160    0 160 2660
140      62586.7 160    0 160 3860
141       -83449 160    0 160 2660
142        83449 160    0 160 3860
143      -104311 160    0 160 2660
144       104311 160    0 160 3860
145      -125173 160    0 160 2660
146       125173 160    0 160 3860
147      -146036 160    0 160 2660
148       146036 160    0 160 3860
149      -166472 160    0 160 2660
150       166472 160    0 160 3860
151      -187334 160    0 160 2660
152       187334 160    0 160 3860
153      -208197 160    0 160 2660
154       208197 160    0 160 3860
155      -229059 160    0 160 2660
156       229059 160    0 160 3860
157      -249921 160    0 160 2660
158       249921 160    0 160 3860
159      -270783 160    0 160 2660
160       270783 160    0 160 3860
161      -291646 160    0 160 2660
162       291646 160    0 160 3860
163      -312508 160    0 160 2660
164       312508 160    0 160 3860
165      -333370 160    0 160 2660
166       333370 160    0 160 3860
167      -354232 160    0 160 2660
168       354232 160    0 160 3860
169      -375095 160    0 160 2660
170       375095 160    0 160 3860
171      -395957 160    0 160 2660
172       395957 160    0 160 3860
173      -416819 160    0 160 2660
174       416819 160    0 160 3860
175      -437681 160    0 160 2660
176       437681 160    0 160 3860
177      -458544 160    0 160 2660
178       458544 160    0 160 3860
179      -478980 160    0 160 2660
180       478980 160    0 160 3860
181      -499842 160    0 160 2660
182       499842 160    0 160 3860
183      -520704 160    0 160 2660
184       520704 160    0 160 3860
185      -541567 160    0 160 2660
186       541567 160    0 160 3860
187      -562429 160    0 160 2660
188       562429 160    0 160 3860
189      -583291 160    0 160 2660
190       583291 160    0 160 3860
191      -604153 160    0 160 2660
192       604153 160    0 160 3860
193      -625016 160    0 160 2660
194       625016 160    0 160 3860
195      -645878 160    0 160 2660
196       645878 160    0 160 3860
197      -666740 160    0 160 2660
198       666740 160    0 160 3860
199      -687602 160    0 160 2660
200       687602 160    0 160 3860
201      -708465 160    0 160 2660
202       708465 160    0 160 3860
203      -729327 160    0 160 2660
204       729327 160    0 160 3860
205      -750189 160    0 160 2660
206       750189 160    0 160 3860
207      -771051 160    0 160 2660
208       771051 160    0 160 3860
209      -791488 160    0 160 2660
210       791488 160    0 160 3860
211      -812350 160    0 160 2660
212       812350 160    0 160 3860
213      -833212 160    0 160 2660
214       833212 160    0 160 3860
215      -854075 160    0 160 2660
216       854075 160    0 160 3860
217      -874937 160    0 160 2660
218       874937 160    0 160 3860
219      -895799 160    0 160 2660
220       895799 160    0 160 3860
221      -916661 160    0 160 2660
222       916661 160    0 160 3860
223      -937524 160    0 160 2660
224       937524 160    0 160 3860
225      -958386 160    0 160 2660
226       958386 160    0 160 3860
227      -979248 160    0 160 2660
228       979248 160    0 160 3860
229 -1.00011e+06 160    0 160 2660
230  1.00011e+06 160    0 160 3860
231 -1.02097e+06 160    0 160 2660
232  1.02097e+06 160    0 160 3860
233 -1.04183e+06 160    0 160 2660
234  1.04183e+06 160    0 160 3860
235  -1.0627e+06 160    0 160 2660
236   1.0627e+06 160    0 160 3860
237 -1.08313e+06 160    0 160 2660
238  1.08313e+06 160    0 160 3860
239   -1.104e+06 160    0 160 2660
240    1.104e+06 160    0 160 3860
241 -1.12486e+06 160    0 160 2660
242  1.12486e+06 160    0 160 3860
243 -1.14572e+06 160    0 160 2660
244  1.14572e+06 160    0 160 3860
245 -1.16658e+06 160    0 160 2660
246  1.16658e+06 160    0 160 3860
247 -1.18744e+06 160    0 160 2660
248  1.18744e+06 160    0 160 3860
249 -1.20831e+06 160    0 160 2660
250  1.20831e+06 160    0 160 3860
251 -1.22917e+06 160    0 160 2660
252  1.22917e+06 160    0 160 3860
253 -1.25003e+06 160    0 160 2660
254  1.25003e+06 160    0 160 3860
255 -1.27089e+06 160    0 160 2660
256  1.27089e+06 160    0 160 3860
257 -1.29176e+06 160    0 160 2660
258  1.29176e+06 160    0 160 3860
259 -1.31262e+06 160    0 160 2660
260  1.31262e+06 160    0 160 3860

# Format of ADC events:
# id num dwell delay freq phase
# ..  ..    ns    us   Hz   rad
[ADC]
1 256 15000 20 0 13.09
2 256 15000 20 0 18.326
3 256 15000 20 0 24.4346
4 256 15000 20 0 31.4159
5 256 15000 20 0 39.2699
6 256 15000 20 0 47.9966
7 256 15000 20 0 57.5959
8 256 15000 20 0 68.0678
9 256 15000 20 0 79.4125
10 256 15000 20 0 91.6298
11 256 15000 20 0 104.72
12 256 15000 20 0 118.682
13 256 15000 20 0 133.518
14 256 15000 20 0 149.226
15 256 15000 20 0 165.806
16 256 15000 20 0 183.26
17 256 15000 20 0 201.586
18 256 15000 20 0 220.784
19 256 15000 20 0 240.855
20 256 15000 20 0 261.799
21 256 15000 20 0 283.616
22 256 15000 20 0 306.305
23 256 15000 20 0 329.867
24 256 15000 20 0 354.302
25 256 15000 20 0 379.609
26 256 15000 20 0 405.789
27 256 15000 20 0 432.842
28 256 15000 20 0 460.767
29 256 15000 20 0 489.565
30 256 15000 20 0 519.235
31 256 15000 20 0 549.779
32 256 15000 20 0 581.195
33 256 15000 20 0 613.483
34 256 15000 20 0 646.644
35 256 15000 20 0 680.678
36 256 15000 20 0 715.585
37 256 15000 20 0 751.364
38 256 15000 20 0 788.016
39 256 15000 20 0 825.541
40 256 15000 20 0 863.938
41 256 15000 20 0 903.208
42 256 15000 20 0 943.35
43 256 15000 20 0 984.366
44 256 15000 20 0 1026.25
45 256 15000 20 0 1069.01
46 256 15000 20 0 1112.65
47 256 15000 20 0 1157.15
48 256 15000 20 0 1202.53
49 256 15000 20 0 1248.78
50 256 15000 20 0 1295.91
51 256 15000 20 0 1343.9
52 256 15000 20 0 1392.77
53 256 15000 20 0 1442.51
54 256 15000 20 0 1493.13
55 256 15000 20 0 1544.62
56 256 15000 20 0 1596.98
57 256 15000 20 0 1650.21
58 256 15000 20 0 1704.31
59 256 15000 20 0 1759.29
60 256 15000 20 0 1815.14
61 256 15000 20 0 1871.87
62 256 15000 20 0 1929.46
63 256 15000 20 0 1987.93
64 256 15000 20 0 2047.27
65 256 15000 20 0 2107.49
66 256 15000 20 0 2168.57
67 256 15000 20 0 2230.53
68 256 15000 20 0 2293.36
69 256 15000 20 0 2357.07
70 256 15000 20 0 2421.64
71 256 15000 20 0 2487.09
72 256 15000 20 0 2553.42
73 256 15000 20 0 2620.61
74 256 15000 20 0 2688.68
75 256 15000 20 0 2757.62
76 256 15000 20 0 2827.43
77 256 15000 20 0 2898.12
78 256 15000 20 0 2969.68
79 256 15000 20 0 3042.11
80 256 15000 20 0 3115.41
81 256 15000 20 0 3189.59
82 256 15000 20 0 3264.64
83 256 15000 20 0 3340.56
84 256 15000 20 0 3417.35
85 256 15000 20 0 3495.02
86 256 15000 20 0 3573.56
87 256 15000 20 0 3652.97
88 256 15000 20 0 3733.26
89 256 15000 20 0 3814.42
90 256 15000 20 0 3896.45
91 256 15000 20 0 3979.35
92 256 15000 20 0 4063.13
93 256 15000 20 0 4147.77
94 256 15000 20 0 4233.3
95 256 15000 20 0 4319.69
96 256 15000 20 0 4406.96
97 256 15000 20 0 4495.1
98 256 15000 20 0 4584.11
99 256 15000 20 0 4673.99
100 256 15000 20 0 4764.75
101 256 15000 20 0 4856.38
102 256 15000 20 0 4948.88
103 256 15000 20 0 5042.26
104 256 15000 20 0 5136.5
105 256 15000 20 0 5231.62
106 256 15000 20 0 5327.62
107 256 15000 20 0 5424.48
108 256 15000 20 0 5522.22
109 256 15000 20 0 5620.83
110 256 15000 20 0 5720.32
111 256 15000 20 0 5820.67
112 256 15000 20 0 5921.9
113 256 15000 20 0 6024
114 256 15000 20 0 6126.98
115 256 15000 20 0 6230.83
116 256 15000 20 0 52.3599
117 256 15000 20 0 157.952
118 256 15000 20 0 264.417
119 256 15000 20 0 371.755
120 256 15000 20 0 479.966
121 256 15000 20 0 589.049
122 256 15000 20 0 699.004
123 256 15000 20 0 809.833
124 256 15000 20 0 921.534
125 256 15000 20 0 1034.11
126 256 15000 20 0 1147.55
127 256 15000 20 0 1261.87
128 256 15000 20 0 1377.06

# Format of extension lists:
# id type ref next_id
# next_id of 0 terminates the list
# Extension list is followed by extension specifications
[EXTENSIONS]
1 1 1 0

# Extension specification for digital output and input triggers:
# id type channel delay (us) duration (us)
extension TRIGGERS 1
1 1 1 0 10

# Sequence Shapes
[SHAPES]

shape_id 1
num_samples 314
0.0073296
0.0146591
0.0146591
1
0.0146592
0.0146591
0.0146591
2
0.0146592
0.0073295
0
0
253
-0.0073295
-0.0146592
-0.0146591
-0.0146591
2
-0.0146592
-0.0146591
-0.0146591
1
-0.0343566
-0.0540541
-0.054054
-0.0540541
-0.054054
-0.0540541
-0.0540541
0
-0.054054
-0.0540541
-0.054054
-0.0540541
-0.054054
-0.0540541
-0.054054
-0.0540541
-0.054054
-0.0540541
-0.054054
-0.0540541
0
0.0540541
0.054054
0.0540541
0.054054
0.0540541
0.054054
0.0540541
0.054054
0.0540541
0.054054
0.0540541
0.054054
0.0540541
0.0540541
0
0.054054
0.0540541
0.054054
0.0540541

shape_id 2
num_samples 512
0
0
30
0.0048309
0
0
21
-0.0048309
0
0
13
0.0048309
0
0
1
0.0048309
0
0
1
0.0096619
0
0
1
0.0048309
0
0
1
0.0096618
0
0
1
0.0144928
0
0
1
0.0096618
0
0
1
0.0144928
0
0
1
0.0144927
0
0
1
0.0193237
0
0
1
0.0144927
0
0
1
0.0241546
0
0
1
0.0193237
0
0
1
0.0241546
0
0
1
0.0241546
0
0
1
0.0241546
0
0
1
0.0289855
0
0
1
0.0289855
0
0
1
0.0289855
0
0
1
0.0289855
0
0
1
0.0338164
0
0
1
0.0289855
0
0
1
0.0338165
0
0
1
0.0338164
0
0
1
0.0338164
0
0
1
0.0338164
0
0
1
0.0338165
0
0
1
0.0338164
0
0
1
0.0338164
0
0
1
0.0338164
0
0
1
0.0338165
0
0
1
0.0289855
0
0
1
0.0289855
0
0
1
0.0289855
0
0
1
0.0289855
0
0
1
0.0241546
0
0
1
0.0241546
0
0
1
0.0241546
0
0
1
0.0193236
0
0
1
0.0193237
0
0
1
0.0144928
0
0
1
0.0144927
0
0
1
0.0096618
0
0
1
0.004831
0
0
1
0.0096618
0
0
13
-0.0096618
0
0
1
-0.004831
0
0
1
-0.0096618
0
0
1
-0.0144927
0
0
1
-0.0144928
0
0
1
-0.0193237
0
0
1
-0.0193236
0
0
1
-0.0241546
0
0
1
-0.0241546
0
0
1
-0.0241546
0
0
1
-0.0289855
0
0
1
-0.0289855
0
0
1
-0.0289855
0
0
1
-0.0289855
0
0
1
-0.0338165
0
0
1
-0.0338164
0
0
1
-0.0338164
0
0
1
-0.0338164
0
0
1
-0.0338165
0
0
1
-0.0338164
0
0
1
-0.0338164
0
0
1
-0.0338164
0
0
1
-0.0338165
0
0
1
-0.0289855
0
0
1
-0.0338164
0
0
1
-0.0289855
0
0
1
-0.0289855
0
0
1
-0.0289855
0
0
1
-0.0289855
0
0
1
-0.0241546
0
0
1
-0.0241546
0
0
1
-0.0241546
0
0
1
-0.0193237
0
0
1
-0.0241546
0
0
1
-0.0144927
0
0
1
-0.0193237
0
0
1
-0.0144927
0
0
1
-0.0144928
0
0
1
-0.0096618
0
0
1
-0.0144928
0
0
1
-0.0096618
0
0
1
-0.0048309
0
0
1
-0.0096619
0
0
1
-0.0048309
0
0
1
-0.0048309
0
0
13
0.0048309
0
0
21
-0.0048309
0
0
29

shape_id 3
num_samples 512
0
0
6
0.5
0
0
53
-0.5
0
0
381
0.5
0
0
53
-0.5
0
0
5


[SIGNATURE]
# This is the hash of the Pulseq file, calculated right before the [SIGNATURE] section was added
# It can be reproduced/verified with md5sum if the file trimmed to the position right above [SIGNATURE]
# The new line character preceding [SIGNATURE] BELONGS to the signature (and needs to be stripped away for recalculating/verification)
Type md5
Hash 945eb09ce37753f4bec0997a01e4ede0
