# Pulseq sequence file
# Created by PyPulseq

[VERSION]
major 1
minor 4
revision 2

[DEFINITIONS]
AdcRasterTime 1e-07 
BlockDurationRaster 1e-05 
GradientRasterTime 1e-05 
Name dzne_ep3d.seq 
RadiofrequencyRasterTime 5e-06 
TotalDuration 7.74637 

# Format of blocks:
# NUM DUR RF  GX  GY  GZ  ADC  EXT
[BLOCKS]
   1 600   0   1   1   1  0  0
   2 50000   0   2   2   2  0  0
   3 50000   0   2   2   2  0  0
   4 49400   0   0   0   0  0  0
   5 179   1   0   0   3  0  0
   6 102   0   0   0   4  1  0
   7 102   0   0   0   5  1  0
   8 102   0   0   0   6  1  0
   9 152   0   7   8   9  0  0
  10 113   2   0   0   0  0  1
  11 412   0  10  11  12  0  0
  12 104   0   0  13  14  2  0
  13 102   0   0  15  16  3  0
  14 102   0   0  15  17  3  0
  15 102   0   0  15  16  3  0
  16 102   0   0  15  17  3  0
  17 102   0   0  15  16  3  0
  18 102   0   0  15  17  3  0
  19 102   0   0  15  16  3  0
  20 102   0   0  15  17  3  0
  21 102   0   0  15  16  3  0
  22 102   0   0  15  17  3  0
  23 102   0   0  15  16  3  0
  24 102   0   0  15  17  3  0
  25 102   0   0  15  16  3  0
  26 102   0   0  15  17  3  0
  27 102   0   0  15  16  3  0
  28 102   0   0  15  17  3  0
  29 102   0   0  15  16  3  0
  30 102   0   0  15  17  3  0
  31 102   0   0  15  16  3  0
  32 102   0   0  15  17  3  0
  33 102   0   0  15  16  3  0
  34 102   0   0  15  17  3  0
  35 102   0   0  15  16  3  0
  36 102   0   0  15  17  3  0
  37 102   0   0  15  16  3  0
  38 102   0   0  15  17  3  0
  39 102   0   0  15  16  3  0
  40 102   0   0  15  17  3  0
  41 102   0   0  15  16  3  0
  42 102   0   0  15  17  3  0
  43 102   0   0  15  16  3  0
  44 102   0   0  15  17  3  0
  45 102   0   0  15  16  3  0
  46 102   0   0  15  17  3  0
  47 102   0   0  15  16  3  0
  48 102   0   0  15  17  3  0
  49 102   0   0  15  16  3  0
  50 102   0   0  15  17  3  0
  51 102   0   0  15  16  3  0
  52 102   0   0  15  17  3  0
  53 102   0   0  15  16  3  0
  54 102   0   0  15  17  3  0
  55 102   0   0  15  16  3  0
  56 102   0   0  15  17  3  0
  57 102   0   0  15  16  3  0
  58 102   0   0  15  17  3  0
  59 102   0   0  15  16  3  0
  60 102   0   0  15  17  3  0
  61 102   0   0  15  16  3  0
  62 102   0   0  15  17  3  0
  63 102   0   0  15  16  3  0
  64 102   0   0  15  17  3  0
  65 102   0   0  15  16  3  0
  66 102   0   0  15  17  3  0
  67 102   0   0  15  16  3  0
  68 102   0   0  15  17  3  0
  69 102   0   0  15  16  3  0
  70 102   0   0  15  17  3  0
  71 102   0   0  15  16  3  0
  72 102   0   0  15  17  3  0
  73 102   0   0  15  16  3  0
  74 102   0   0  15  17  3  0
  75 102   0   0  15  16  3  0
  76 102   0   0  15  17  3  0
  77 102   0   0  15  16  3  0
  78 102   0   0  15  17  3  0
  79 102   0   0  15  16  3  0
  80 102   0   0  15  17  3  0
  81 102   0   0  15  16  3  0
  82 102   0   0  15  17  3  0
  83 102   0   0  15  16  3  0
  84 102   0   0  15  17  3  0
  85 102   0   0  15  16  3  0
  86 102   0   0  15  17  3  0
  87 102   0   0  15  16  3  0
  88 102   0   0  15  17  3  0
  89 102   0   0  15  16  3  0
  90 102   0   0  15  17  3  0
  91 102   0   0  15  16  3  0
  92 102   0   0  15  17  3  0
  93 102   0   0  15  16  3  0
  94 102   0   0  15  17  3  0
  95 103   0  18  19  20  3  0
  96 149   0  21  22  23  0  0
  97 3755   0   0   0   0  0  0
  98 113   3   0   0   0  0  0
  99 412   0  24  11  12  0  0
 100 104   0   0  13  14  4  0
 101 102   0   0  15  16  5  0
 102 102   0   0  15  17  5  0
 103 102   0   0  15  16  5  0
 104 102   0   0  15  17  5  0
 105 102   0   0  15  16  5  0
 106 102   0   0  15  17  5  0
 107 102   0   0  15  16  5  0
 108 102   0   0  15  17  5  0
 109 102   0   0  15  16  5  0
 110 102   0   0  15  17  5  0
 111 102   0   0  15  16  5  0
 112 102   0   0  15  17  5  0
 113 102   0   0  15  16  5  0
 114 102   0   0  15  17  5  0
 115 102   0   0  15  16  5  0
 116 102   0   0  15  17  5  0
 117 102   0   0  15  16  5  0
 118 102   0   0  15  17  5  0
 119 102   0   0  15  16  5  0
 120 102   0   0  15  17  5  0
 121 102   0   0  15  16  5  0
 122 102   0   0  15  17  5  0
 123 102   0   0  15  16  5  0
 124 102   0   0  15  17  5  0
 125 102   0   0  15  16  5  0
 126 102   0   0  15  17  5  0
 127 102   0   0  15  16  5  0
 128 102   0   0  15  17  5  0
 129 102   0   0  15  16  5  0
 130 102   0   0  15  17  5  0
 131 102   0   0  15  16  5  0
 132 102   0   0  15  17  5  0
 133 102   0   0  15  16  5  0
 134 102   0   0  15  17  5  0
 135 102   0   0  15  16  5  0
 136 102   0   0  15  17  5  0
 137 102   0   0  15  16  5  0
 138 102   0   0  15  17  5  0
 139 102   0   0  15  16  5  0
 140 102   0   0  15  17  5  0
 141 102   0   0  15  16  5  0
 142 102   0   0  15  17  5  0
 143 102   0   0  15  16  5  0
 144 102   0   0  15  17  5  0
 145 102   0   0  15  16  5  0
 146 102   0   0  15  17  5  0
 147 102   0   0  15  16  5  0
 148 102   0   0  15  17  5  0
 149 102   0   0  15  16  5  0
 150 102   0   0  15  17  5  0
 151 102   0   0  15  16  5  0
 152 102   0   0  15  17  5  0
 153 102   0   0  15  16  5  0
 154 102   0   0  15  17  5  0
 155 102   0   0  15  16  5  0
 156 102   0   0  15  17  5  0
 157 102   0   0  15  16  5  0
 158 102   0   0  15  17  5  0
 159 102   0   0  15  16  5  0
 160 102   0   0  15  17  5  0
 161 102   0   0  15  16  5  0
 162 102   0   0  15  17  5  0
 163 102   0   0  15  16  5  0
 164 102   0   0  15  17  5  0
 165 102   0   0  15  16  5  0
 166 102   0   0  15  17  5  0
 167 102   0   0  15  16  5  0
 168 102   0   0  15  17  5  0
 169 102   0   0  15  16  5  0
 170 102   0   0  15  17  5  0
 171 102   0   0  15  16  5  0
 172 102   0   0  15  17  5  0
 173 102   0   0  15  16  5  0
 174 102   0   0  15  17  5  0
 175 102   0   0  15  16  5  0
 176 102   0   0  15  17  5  0
 177 102   0   0  15  16  5  0
 178 102   0   0  15  17  5  0
 179 102   0   0  15  16  5  0
 180 102   0   0  15  17  5  0
 181 102   0   0  15  16  5  0
 182 102   0   0  15  17  5  0
 183 103   0  25  19  20  5  0
 184 149   0  26  22  23  0  0
 185 3755   0   0   0   0  0  0
 186 113   4   0   0   0  0  0
 187 412   0  27  11  12  0  0
 188 104   0   0  13  14  6  0
 189 102   0   0  15  16  7  0
 190 102   0   0  15  17  7  0
 191 102   0   0  15  16  7  0
 192 102   0   0  15  17  7  0
 193 102   0   0  15  16  7  0
 194 102   0   0  15  17  7  0
 195 102   0   0  15  16  7  0
 196 102   0   0  15  17  7  0
 197 102   0   0  15  16  7  0
 198 102   0   0  15  17  7  0
 199 102   0   0  15  16  7  0
 200 102   0   0  15  17  7  0
 201 102   0   0  15  16  7  0
 202 102   0   0  15  17  7  0
 203 102   0   0  15  16  7  0
 204 102   0   0  15  17  7  0
 205 102   0   0  15  16  7  0
 206 102   0   0  15  17  7  0
 207 102   0   0  15  16  7  0
 208 102   0   0  15  17  7  0
 209 102   0   0  15  16  7  0
 210 102   0   0  15  17  7  0
 211 102   0   0  15  16  7  0
 212 102   0   0  15  17  7  0
 213 102   0   0  15  16  7  0
 214 102   0   0  15  17  7  0
 215 102   0   0  15  16  7  0
 216 102   0   0  15  17  7  0
 217 102   0   0  15  16  7  0
 218 102   0   0  15  17  7  0
 219 102   0   0  15  16  7  0
 220 102   0   0  15  17  7  0
 221 102   0   0  15  16  7  0
 222 102   0   0  15  17  7  0
 223 102   0   0  15  16  7  0
 224 102   0   0  15  17  7  0
 225 102   0   0  15  16  7  0
 226 102   0   0  15  17  7  0
 227 102   0   0  15  16  7  0
 228 102   0   0  15  17  7  0
 229 102   0   0  15  16  7  0
 230 102   0   0  15  17  7  0
 231 102   0   0  15  16  7  0
 232 102   0   0  15  17  7  0
 233 102   0   0  15  16  7  0
 234 102   0   0  15  17  7  0
 235 102   0   0  15  16  7  0
 236 102   0   0  15  17  7  0
 237 102   0   0  15  16  7  0
 238 102   0   0  15  17  7  0
 239 102   0   0  15  16  7  0
 240 102   0   0  15  17  7  0
 241 102   0   0  15  16  7  0
 242 102   0   0  15  17  7  0
 243 102   0   0  15  16  7  0
 244 102   0   0  15  17  7  0
 245 102   0   0  15  16  7  0
 246 102   0   0  15  17  7  0
 247 102   0   0  15  16  7  0
 248 102   0   0  15  17  7  0
 249 102   0   0  15  16  7  0
 250 102   0   0  15  17  7  0
 251 102   0   0  15  16  7  0
 252 102   0   0  15  17  7  0
 253 102   0   0  15  16  7  0
 254 102   0   0  15  17  7  0
 255 102   0   0  15  16  7  0
 256 102   0   0  15  17  7  0
 257 102   0   0  15  16  7  0
 258 102   0   0  15  17  7  0
 259 102   0   0  15  16  7  0
 260 102   0   0  15  17  7  0
 261 102   0   0  15  16  7  0
 262 102   0   0  15  17  7  0
 263 102   0   0  15  16  7  0
 264 102   0   0  15  17  7  0
 265 102   0   0  15  16  7  0
 266 102   0   0  15  17  7  0
 267 102   0   0  15  16  7  0
 268 102   0   0  15  17  7  0
 269 102   0   0  15  16  7  0
 270 102   0   0  15  17  7  0
 271 103   0  28  19  20  7  0
 272 149   0  29  22  23  0  0
 273 3755   0   0   0   0  0  0
 274 113   5   0   0   0  0  0
 275 412   0  30  11  12  0  0
 276 104   0   0  13  14  8  0
 277 102   0   0  15  16  9  0
 278 102   0   0  15  17  9  0
 279 102   0   0  15  16  9  0
 280 102   0   0  15  17  9  0
 281 102   0   0  15  16  9  0
 282 102   0   0  15  17  9  0
 283 102   0   0  15  16  9  0
 284 102   0   0  15  17  9  0
 285 102   0   0  15  16  9  0
 286 102   0   0  15  17  9  0
 287 102   0   0  15  16  9  0
 288 102   0   0  15  17  9  0
 289 102   0   0  15  16  9  0
 290 102   0   0  15  17  9  0
 291 102   0   0  15  16  9  0
 292 102   0   0  15  17  9  0
 293 102   0   0  15  16  9  0
 294 102   0   0  15  17  9  0
 295 102   0   0  15  16  9  0
 296 102   0   0  15  17  9  0
 297 102   0   0  15  16  9  0
 298 102   0   0  15  17  9  0
 299 102   0   0  15  16  9  0
 300 102   0   0  15  17  9  0
 301 102   0   0  15  16  9  0
 302 102   0   0  15  17  9  0
 303 102   0   0  15  16  9  0
 304 102   0   0  15  17  9  0
 305 102   0   0  15  16  9  0
 306 102   0   0  15  17  9  0
 307 102   0   0  15  16  9  0
 308 102   0   0  15  17  9  0
 309 102   0   0  15  16  9  0
 310 102   0   0  15  17  9  0
 311 102   0   0  15  16  9  0
 312 102   0   0  15  17  9  0
[RF]
1      13.8806 2 3 0 100 0 17.4533
2      41.6418 2 3 0 100 0 23.5619
3      41.6418 2 3 0 100 0 30.5433
4      41.6418 2 3 0 100 0 38.3972
5      41.6418 2 3 0 100 0 47.1239
6      41.6418 2 3 0 100 0 56.7232
7      41.6418 2 3 0 100 0 67.1952
8      41.6418 2 3 0 100 0 78.5398
9      41.6418 2 3 0 100 0 90.7571
10      41.6418 2 3 0 100 0 103.847
11      41.6418 2 3 0 100 0 117.81
12      41.6418 2 3 0 100 0 132.645
13      41.6418 2 3 0 100 0 148.353
14      41.6418 2 3 0 100 0 164.934
15      41.6418 2 3 0 100 0 182.387
16      41.6418 2 3 0 100 0 200.713
17      41.6418 2 3 0 100 0 219.911
18      41.6418 2 3 0 100 0 239.983
19      41.6418 2 3 0 100 0 260.927
20      41.6418 2 3 0 100 0 282.743
21      41.6418 2 3 0 100 0 305.433
22      41.6418 2 3 0 100 0 328.995
23      41.6418 2 3 0 100 0 353.429
24      41.6418 2 3 0 100 0 378.736
25      41.6418 2 3 0 100 0 404.916
26      41.6418 2 3 0 100 0 431.969
27      41.6418 2 3 0 100 0 459.894
28      41.6418 2 3 0 100 0 488.692
29      41.6418 2 3 0 100 0 518.363
30      41.6418 2 3 0 100 0 548.906
31      41.6418 2 3 0 100 0 580.322
32      41.6418 2 3 0 100 0 612.611
33      41.6418 2 3 0 100 0 645.772
34      41.6418 2 3 0 100 0 679.806
35      41.6418 2 3 0 100 0 714.712
36      41.6418 2 3 0 100 0 750.492
37      41.6418 2 3 0 100 0 787.143
38      41.6418 2 3 0 100 0 824.668
39      41.6418 2 3 0 100 0 863.065
40      41.6418 2 3 0 100 0 902.335
41      41.6418 2 3 0 100 0 942.478
42      41.6418 2 3 0 100 0 983.493
43      41.6418 2 3 0 100 0 1025.38
44      41.6418 2 3 0 100 0 1068.14
45      41.6418 2 3 0 100 0 1111.77
46      41.6418 2 3 0 100 0 1156.28
47      41.6418 2 3 0 100 0 1201.66
48      41.6418 2 3 0 100 0 1247.91
49      41.6418 2 3 0 100 0 1295.03

# Format of arbitrary gradients:
#   time_shape_id of 0 means default timing (stepping with grad_raster starting at 1/2 of grad_raster)
# id amplitude amp_shape_id time_shape_id delay
# ..      Hz/m       ..         ..          us
[GRADIENTS]
1        42576 1 0 0
2        42576 1 0 494000
3      -323030 4 0 1110
4       423976 5 0 0
5      -423976 6 0 0
6       423976 6 0 0
7       439565 7 0 0
8      -879130 8 0 0
9      -223636 9 0 0
10      -317463 10 0 3440
11       317463 10 0 3440
12       323030 4 0 3440
13      -132276 11 0 0
14      -423976 12 0 0
15      -132276 13 0 0
16       423976 14 0 0
17      -423976 14 0 0
18      27022.4 15 0 970
19     -27236.9 16 0 0
20       423976 17 0 0
21       659347 18 0 0
22      -664580 19 0 0
23      -223636 20 0 0
24      -304236 21 0 3440
25      26647.1 22 0 970
26       650190 23 0 0
27      -291008 24 0 3440
28      26271.8 25 0 970
29       641032 26 0 0
30      -277781 27 0 3440
31      25896.4 28 0 970
32       631874 29 0 0
33      -264553 30 0 3440
34      25521.1 28 0 970
35       622717 31 0 0
36      -251325 32 0 3440
37      25145.8 28 0 970
38       613559 33 0 0
39      -238098 34 0 3440
40      24770.5 28 0 970
41       604402 35 0 0
42      -224870 36 0 3440
43      24395.2 28 0 970
44       595244 37 0 0
45      -211642 38 0 3440
46      24019.9 28 0 970
47       586086 39 0 0
48      -198415 40 0 3440
49      23644.6 28 0 970
50       576929 41 0 0
51      -185187 42 0 3440
52      23269.3 28 0 970
53       567771 43 0 0
54      -171959 38 0 3440
55        22894 28 0 970
56       558614 44 0 0
57      -158732 45 0 3440
58      22518.7 28 0 970
59       549456 46 0 0
60      -145504 47 0 3440
61      22143.4 28 0 970
62       540298 48 0 0
63      -132276 49 0 3440
64        21768 28 0 970
65       531141 50 0 0
66      -119049 51 0 3440
67      21392.7 28 0 970
68       521983 52 0 0
69      -105821 53 0 3440
70      21017.4 28 0 970
71       512826 54 0 0
72     -92593.5 55 0 3440
73      20642.1 28 0 970
74       503668 56 0 0
75     -79365.8 57 0 3440
76      20266.8 28 0 970
77       494510 58 0 0
78     -66138.2 59 0 3440
79      19891.5 28 0 970
80       485353 60 0 0
81     -52910.6 61 0 3440
82      19516.2 62 0 970
83       476195 63 0 0
84     -39682.9 64 0 3440
85      19140.8 65 0 970
86       467038 66 0 0
87     -26455.3 67 0 3440
88      18765.5 68 0 970
89       457880 69 0 0
90     -13227.6 70 0 3440
91      18390.2 71 0 970
92       448722 72 0 0
93      18014.9 73 0 970
94       439565 74 0 0
95      13227.6 70 0 3440
96      17639.6 75 0 970
97       430407 76 0 0
98      26455.3 67 0 3440
99      17264.3 77 0 970
100       421250 78 0 0
101      39682.9 64 0 3440
102        16889 79 0 970
103       412092 80 0 0
104      52910.6 61 0 3440
105      16513.7 81 0 970
106       402934 82 0 0
107      66138.2 59 0 3440
108      16138.4 83 0 970
109       393777 84 0 0
110      79365.8 57 0 3440
111        15763 85 0 970
112       384619 86 0 0
113      92593.5 55 0 3440
114      15387.7 87 0 970
115       375462 88 0 0
116       105821 53 0 3440
117      15012.4 89 0 970
118       366304 90 0 0
119       119049 51 0 3440
120      14637.1 91 0 970
121       357146 92 0 0
122       132276 49 0 3440
123      14261.8 93 0 970
124       347989 94 0 0
125       145504 47 0 3440
126      13886.5 95 0 970
127       338831 96 0 0
128       158732 45 0 3440
129      13511.2 97 0 970
130       329674 98 0 0
131       171959 38 0 3440
132      13135.9 99 0 970
133       320516 100 0 0
134       185187 42 0 3440
135      12760.5 101 0 970
136       311358 102 0 0
137       198415 40 0 3440
138      12385.2 103 0 970
139       302201 104 0 0
140       211642 38 0 3440
141      12009.9 105 0 970
142       293043 106 0 0
143       224870 36 0 3440
144      11634.6 107 0 970
145       283886 108 0 0
146       238098 34 0 3440
147      11259.3 109 0 970
148       274728 110 0 0
149       251325 32 0 3440
150        10884 111 0 970
151       265570 112 0 0
152       264553 30 0 3440
153      10508.7 113 0 970
154       256413 114 0 0
155       277781 27 0 3440
156      10133.4 115 0 970
157       247255 116 0 0
158       291008 24 0 3440
159      9758.08 62 0 970
160       238098 117 0 0
161       304236 21 0 3440
162      9382.77 68 0 970
163       228940 118 0 0

# Format of ADC events:
# id num dwell delay freq phase
# ..  ..    ns    us   Hz   rad
[ADC]
1 168 5700 32 -0 15.8825
2 168 5700 32 0 21.9911
3 168 5700 12 -0 21.9911
4 168 5700 32 0 29.0379
5 168 5700 12 -0 29.0379
6 168 5700 32 0 36.9573
7 168 5700 12 -0 36.9573
8 168 5700 32 0 45.7494
9 168 5700 12 -0 45.7494
10 168 5700 32 0 55.4142
11 168 5700 12 -0 55.4142
12 168 5700 32 0 65.9516
13 168 5700 12 -0 65.9516
14 168 5700 32 0 77.3617
15 168 5700 12 -0 77.3617
16 168 5700 32 0 89.6445
17 168 5700 12 -0 89.6445
18 168 5700 32 0 102.8
19 168 5700 12 -0 102.8
20 168 5700 32 0 116.828
21 168 5700 12 -0 116.828
22 168 5700 32 0 131.729
23 168 5700 12 -0 131.729
24 168 5700 32 0 147.502
25 168 5700 12 -0 147.502
26 168 5700 32 0 164.148
27 168 5700 12 -0 164.148
28 168 5700 32 0 181.667
29 168 5700 12 -0 181.667
30 168 5700 32 0 200.058
31 168 5700 12 -0 200.058
32 168 5700 32 0 219.322
33 168 5700 12 -0 219.322
34 168 5700 32 0 239.459
35 168 5700 12 -0 239.459
36 168 5700 32 0 260.469
37 168 5700 12 -0 260.469
38 168 5700 32 0 282.351
39 168 5700 12 -0 282.351
40 168 5700 32 0 305.105
41 168 5700 12 -0 305.105
42 168 5700 32 0 328.733
43 168 5700 12 -0 328.733
44 168 5700 32 0 353.233
45 168 5700 12 -0 353.233
46 168 5700 32 0 378.606
47 168 5700 12 -0 378.606
48 168 5700 32 0 404.851
49 168 5700 12 -0 404.851
50 168 5700 32 0 431.969
51 168 5700 12 -0 431.969
52 168 5700 32 0 459.96
53 168 5700 12 -0 459.96
54 168 5700 32 0 488.823
55 168 5700 12 -0 488.823
56 168 5700 32 0 518.559
57 168 5700 12 -0 518.559
58 168 5700 32 0 549.168
59 168 5700 12 -0 549.168
60 168 5700 32 0 580.649
61 168 5700 12 -0 580.649
62 168 5700 32 0 613.003
63 168 5700 12 -0 613.003
64 168 5700 32 0 646.23
65 168 5700 12 -0 646.23
66 168 5700 32 0 680.329
67 168 5700 12 -0 680.329
68 168 5700 32 0 715.301
69 168 5700 12 -0 715.301
70 168 5700 32 0 751.146
71 168 5700 12 -0 751.146
72 168 5700 32 0 787.863
73 168 5700 12 -0 787.863
74 168 5700 32 0 825.453
75 168 5700 12 -0 825.453
76 168 5700 32 0 863.916
77 168 5700 12 -0 863.916
78 168 5700 32 0 903.252
79 168 5700 12 -0 903.252
80 168 5700 32 0 943.46
81 168 5700 12 -0 943.46
82 168 5700 32 0 984.54
83 168 5700 12 -0 984.54
84 168 5700 32 0 1026.49
85 168 5700 12 -0 1026.49
86 168 5700 32 0 1069.32
87 168 5700 12 -0 1069.32
88 168 5700 32 0 1113.02
89 168 5700 12 -0 1113.02
90 168 5700 32 0 1157.59
91 168 5700 12 -0 1157.59
92 168 5700 32 0 1203.03
93 168 5700 12 -0 1203.03
94 168 5700 32 0 1249.35
95 168 5700 12 -0 1249.35
96 168 5700 32 0 1296.54
97 168 5700 12 -0 1296.54

# Format of extension lists:
# id type ref next_id
# next_id of 0 terminates the list
# Extension list is followed by extension specifications
[EXTENSIONS]
1 1 1 0

# Extension specification for digital output and input triggers:
# id type channel delay (us) duration (us)
extension TRIGGERS 1
1 1 3 0 200

# Sequence Shapes
[SHAPES]

shape_id 1
num_samples 600
0.004999
0.01
0.01
97
0.005001
0
0
397
-0.005
-0.01
-0.01
97

shape_id 2
num_samples 200
1
0
0
197

shape_id 3
num_samples 200
0
0
198

shape_id 4
num_samples 68
0.0999999
0.2
0.2000001
0.1999999
0.1999999
0
0.1000002
0
0
55
-0.1
-0.2000001
-0.1999999
-0.1999999
0
-0.2000002

shape_id 5
num_samples 102
0.0833333
0.1666666
0.1666667
0.1666666
0.1666666
0
0.1666667
0.0833335
0
0
87
-0.0833334
-0.1666667
-0.1666666
-0.1666666
1
-0.1666669

shape_id 6
num_samples 102
0.0833333
0.1666665
0.1666668
0.1666667
0.1666666
0.1666667
0.0833334
0
0
87
-0.0833334
-0.1666667
-0.1666666
-0.1666666
1
-0.1666669

shape_id 7
num_samples 152
0.0081966
0.0163935
0.0163935
0
0.0163934
0.0163935
0.0163934
0.0163934
1
0.0163935
0.0163935
0
0.0163934
0.0163935
0.0163934
0.0163933
0.0163936
0.0163934
0.0163935
0.0163935
0
0.0163933
0.0163934
0.0163935
0.0163935
1
0.0163934
0.0163934
1
0.0163935
0.0163935
0
0.0163934
0.0163935
0.0163934
0.0163933
0.0163936
0.0163934
0.0163935
0.0163935
0
0.0163933
0.0163934
0.0163935
0.0163935
1
0.0163934
0.0163934
0
0.0163933
0.0163936
0.0163935
0.0163934
0.0163935
0.0163933
0.0163934
0.0163936
0.0163934
0.0163935
0.0163934
0.0163934
1
0.0163935
0.0163935
0
0.0163934
0.0163935
0.0163934
0.0081967
0
0
27
-0.0081967
-0.0163935
-0.0163935
0
-0.0163934
-0.0163934
0
-0.0163933
-0.0163936
-0.0163935
-0.0163934
-0.0163935
-0.0163933
-0.0163934
-0.0163936
-0.0163934
-0.0163935
-0.0163934
-0.0163934
1
-0.0163935
-0.0163935
0
-0.0163934
-0.0163934
1
-0.0163935
-0.0163935
0
-0.0163934
-0.0163935
-0.0163934
-0.0163933
-0.0163936
-0.0163934
-0.0163935
-0.0163935
0
-0.0163933
-0.0163934
-0.0163936
-0.0163934
-0.0163935
-0.0163934
-0.0163934
1
-0.0163935
-0.0163935
0
-0.0163934
-0.0163935
-0.0163934
-0.0163933
-0.0163936
-0.0163934
-0.0163935
-0.0163935
0
-0.0163933
-0.0163934
-0.0163935
-0.0163935
1
-0.0163934
-0.0163934
0
-0.0163933
-0.0163936
-0.0163935

shape_id 8
num_samples 152
0.00819668122
0.0245901405
0.0409835998
0.0573770107
0.0737704215
0.0901639293
0.10655734
0.122950751
0.139344259
0.15573767
0.17213108
0.188524588
0.204917999
0.22131141
0.237704918
0.254098329
0.270491739
0.286885247
0.303278658
0.319672069
0.336065577
0.352458987
0.368852398
0.385245906
0.401639317
0.418032728
0.434426235
0.450819646
0.467213057
0.483606565
0.499999976
0.516393387
0.532786894
0.549180305
0.565573716
0.581967224
0.598360635
0.614754046
0.631147553
0.647540964
0.663934375
0.680327883
0.696721294
0.713114704
0.729508212
0.745901623
0.762295034
0.778688542
0.795081953
0.811475363
0.827868871
0.844262282
0.860655693
0.877049201
0.893442611
0.909836022
0.92622953
0.942622941
0.959016352
0.975409859
0.99180327
1
1
1
1
1
1
1
1
1
1
1
1
1
1
1
1
1
1
1
1
1
1
1
1
1
1
1
1
1
1
0.991803222
0.975409811
0.9590164
0.942622892
0.926229482
0.909836071
0.893442563
0.877049152
0.860655741
0.844262234
0.827868823
0.811475412
0.795081904
0.778688493
0.762295082
0.745901575
0.729508164
0.713114753
0.696721245
0.680327834
0.663934423
0.647541013
0.631147505
0.614754046
0.598360635
0.581967224
0.565573716
0.549180305
0.532786894
0.516393387
0.499999976
0.483606565
0.467213057
0.450819646
0.434426235
0.418032728
0.401639317
0.385245906
0.368852398
0.352458987
0.336065577
0.319672069
0.303278658
0.286885247
0.270491739
0.254098329
0.237704918
0.22131141
0.204917999
0.188524588
0.17213108
0.15573767
0.139344259
0.122950751
0.10655734
0.0901639293
0.0737704215
0.0573770107
0.0409835998
0.0245900921
0.00819668122

shape_id 9
num_samples 152
0.0081967
0.0163933
0.0163933
0
0.0163937
0.0163933
0.0163933
0
0.0163937
0.0163934
0.0163933
0.0163937
0.0163933
0.0163933
0
0.0163937
0.0163934
0.0163933
0.0163937
0.0163933
0.0163933
1
0.0163937
0.0163936
0.0163933
0.0163933
0
0.0163937
0.0163933
0.0163933
0
0.0163937
0.0163934
0.0163933
0.0163937
0.0163933
0.0163933
0
0.0163937
0.0163933
0.0163934
0.0163933
0.0163937
0.0163935
0.0163933
0.0163933
0
0.0163937
0.0163934
0.0163933
0.0163937
0.0163933
0.0163933
0
0.0163937
0.0163934
0.0163933
0.0163937
0.0163933
0.0163933
1
0.0163937
0.0163936
0.0163933
0.0163933
0
0.0163937
0.0163933
0.0163933
0
0.0163937
0.0081967
0
0
27
-0.0081969
-0.0163933
-0.0163933
0
-0.0163937
-0.0163933
-0.0163933
0
-0.0163937
-0.0163934
-0.0163933
-0.0163937
-0.0163933
-0.0163933
1
-0.0163937
-0.0163936
-0.0163933
-0.0163933
0
-0.0163937
-0.0163933
-0.0163933
0
-0.0163937
-0.0163934
-0.0163933
-0.0163937
-0.0163933
-0.0163933
0
-0.0163937
-0.0163934
-0.0163933
-0.0163933
0
-0.0163937
-0.0163935
-0.0163933
-0.0163933
0
-0.0163937
-0.0163934
-0.0163933
-0.0163937
-0.0163933
-0.0163933
0
-0.0163937
-0.0163934
-0.0163933
-0.0163937
-0.0163933
-0.0163933
0
-0.0163937
-0.0163933
-0.0163934
-0.0163933
-0.0163937
-0.0163935
-0.0163933
-0.0163933
0
-0.0163937
-0.0163934
-0.0163933
-0.0163937
-0.0163933
-0.0163933
0
-0.0163937

shape_id 10
num_samples 68
0.0999999
0.2
0.2
2
0.1000001
0
0
55
-0.1000001
-0.2
-0.2
2

shape_id 11
num_samples 104
0
0
97
0.1999999
0.3999999
0.3999999
0
3e-07
-0.4000002

shape_id 12
num_samples 104
0.0833333
0.1666666
0.1666667
0.1666666
0.1666666
0
0.1666667
0.0833335
0
0
87
-0.0833334
-0.1666667
-0.1666666
-0.1666666
1
-0.1666669
-0.1666665
-0.1666665
0

shape_id 13
num_samples 102
0.1999999
-0.1999999
0
0
93
0.1999999
0.3999999
0.3999999
0
3e-07
-0.4000002

shape_id 14
num_samples 102
0.4166666
0.1666667
0.1666666
0.1666667
0.0833334
0
0
87
-0.0833334
-0.1666667
-0.1666666
-0.1666666
1
-0.1666669
-0.1666665
-0.1666665
0

shape_id 15
num_samples 6
0
0
0
0.199999685
0.60000063
1

shape_id 16
num_samples 103
0.9713032
-0.9713032
0
0
96
0.1999987
0.4000007
0.4000006

shape_id 17
num_samples 103
0.4166666
0.1666667
0.1666666
0.1666667
0.0833334
0
0
87
-0.0833334
-0.1666667
-0.1666666
-0.1666666
1
-0.1666669
-0.0876567
-0.008647
-0.0086471

shape_id 18
num_samples 149
0.057376947
0.0737704712
0.0901639307
0.106557326
0.122950721
0.139344245
0.155737704
0.172131099
0.188524494
0.204918018
0.221311478
0.237704873
0.254098268
0.270491792
0.286885252
0.303278647
0.319672042
0.336065566
0.352459025
0.36885242
0.385245815
0.401639339
0.418032799
0.434426194
0.450819589
0.467213113
0.483606573
0.499999968
0.516393363
0.532786887
0.549180346
0.565573741
0.581967136
0.598360661
0.61475412
0.631147515
0.64754091
0.663934434
0.680327894
0.696721289
0.713114684
0.729508208
0.745901667
0.762295062
0.778688457
0.795081982
0.811475441
0.827868836
0.844262231
0.860655755
0.877049215
0.89344261
0.909836005
0.926229529
0.942622988
0.959016383
0.975409778
0.991803303
1
1
1
1
1
1
1
1
1
1
1
1
1
1
1
1
1
1
1
1
1
1
1
1
1
1
1
1
1
1
0.991803238
0.975409778
0.959016383
0.942622988
0.926229464
0.909836005
0.89344261
0.877049215
0.860655691
0.844262231
0.827868836
0.811475441
0.795081917
0.778688457
0.762295062
0.745901667
0.729508143
0.713114684
0.696721289
0.680327894
0.66393437
0.647540975
0.63114758
0.614754055
0.598360596
0.581967201
0.565573806
0.549180282
0.532786822
0.516393427
0.500000032
0.483606508
0.467213049
0.450819654
0.434426259
0.418032734
0.401639275
0.38524588
0.368852485
0.352458961
0.336065501
0.319672042
0.303278647
0.286885252
0.270491728
0.254098268
0.237704873
0.221311478
0.204917954
0.188524494
0.172131099
0.155737704
0.13934418
0.122950721
0.106557326
0.0901639307
0.0737704066
0.057376947
0.040983552
0.0245901571
0.00819663292

shape_id 19
num_samples 149
0.057377
0.0163934
0.0163934
0
0.0163935
0.0163935
0
0.0163934
0.0163934
0
0.0163935
0.0163934
0.0163935
0.0163934
0.0163935
0.0163935
0
0.0163934
0.0163934
0
0.0163935
0.0163934
0.0163934
1
0.0163935
0.0163935
0
0.0163934
0.0163934
0
0.0163935
0.0163934
0.0163934
1
0.0163936
0.0163934
0.0163934
2
0.0163936
0.0163934
0.0163934
1
0.0163936
0.0163934
0.0163934
1
0.0163935
0.0163935
0
0.0163934
0.0163934
0
0.0163935
0.0163934
0.0163934
1
0.0163936
0.0163934
0.0163934
1
0.0163936
0.0163934
0.0163934
1
0.0163935
0.0163935
0
0.0081967
0
0
27
-0.0081967
-0.0163935
-0.0163934
-0.0163934
0
-0.0163935
-0.0163934
-0.0163934
0
-0.0163936
-0.0163934
-0.0163934
1
-0.0163935
-0.0163935
0
-0.0163934
-0.0163934
0
-0.0163935
-0.0163934
-0.0163934
1
-0.0163936
-0.0163934
-0.0163934
1
-0.0163936
-0.0163934
-0.0163934
1
-0.0163935
-0.0163935
0
-0.0163934
-0.0163934
0
-0.0163935
-0.0163934
-0.0163934
1
-0.0163935
-0.0163935
0
-0.0163934
-0.0163934
0
-0.0163935
-0.0163934
-0.0163934
0
-0.0163936
-0.0163934
-0.0163934
0
-0.0163935
-0.0163934
-0.0163934
1
-0.0163936
-0.0163934
-0.0163934
1
-0.0163936
-0.0163934
-0.0163934
1
-0.0163935
-0.0163935
0
-0.0163934
-0.0163934
0

shape_id 20
num_samples 149
0.057377
0.0163933
0.0163933
0
0.0163937
0.0163934
0.0163933
0.0163937
0.0163933
0.0163933
0
0.0163937
0.0163934
0.0163933
0.0163937
0.0163933
0.0163933
1
0.0163937
0.0163936
0.0163933
0.0163933
0
0.0163937
0.0163933
0.0163933
0
0.0163937
0.0163934
0.0163933
0.0163937
0.0163933
0.0163933
0
0.0163937
0.0163933
0.0163934
0.0163933
0.0163937
0.0163935
0.0163933
0.0163933
0
0.0163937
0.0163934
0.0163933
0.0163937
0.0163933
0.0163933
0
0.0163937
0.0163934
0.0163933
0.0163937
0.0163933
0.0163933
1
0.0163937
0.0163936
0.0163933
0.0163933
0
0.0163937
0.0163933
0.0163933
0
0.0163937
0.0081967
0
0
27
-0.0081969
-0.0163933
-0.0163933
0
-0.0163937
-0.0163933
-0.0163933
0
-0.0163937
-0.0163934
-0.0163933
-0.0163937
-0.0163933
-0.0163933
1
-0.0163937
-0.0163936
-0.0163933
-0.0163933
0
-0.0163937
-0.0163933
-0.0163933
0
-0.0163937
-0.0163934
-0.0163933
-0.0163937
-0.0163933
-0.0163933
0
-0.0163937
-0.0163934
-0.0163933
-0.0163933
0
-0.0163937
-0.0163935
-0.0163933
-0.0163933
0
-0.0163937
-0.0163934
-0.0163933
-0.0163937
-0.0163933
-0.0163933
0
-0.0163937
-0.0163934
-0.0163933
-0.0163937
-0.0163933
-0.0163933
0
-0.0163937
-0.0163933
-0.0163934
-0.0163933
-0.0163937
-0.0163935
-0.0163933
-0.0163933
0
-0.0163937
-0.0163934
-0.0163933
-0.0163937
-0.0163933
-0.0163933
0
-0.0163937

shape_id 21
num_samples 68
0.1
0.1999999
0.2
0.1999999
0.2000002
0.1
0
0
55
-0.1000001
-0.2
-0.1999999
-0.1999999
0
-0.2000003

shape_id 22
num_samples 6
0
0
0
0.19999968
0.600000639
1

shape_id 23
num_samples 149
0.0573769569
0.0737704854
0.0901638829
0.10655728
0.122950809
0.139344272
0.155737669
0.172131067
0.188524596
0.204918059
0.221311456
0.237704854
0.254098382
0.27049178
0.286885177
0.303278706
0.319672169
0.336065566
0.352458964
0.368852492
0.38524589
0.401639287
0.418032816
0.434426279
0.450819676
0.467213074
0.483606602
0.5
0.516393398
0.532786926
0.549180389
0.565573787
0.581967184
0.598360713
0.61475411
0.631147508
0.647541036
0.663934499
0.680327897
0.696721294
0.713114823
0.729508286
0.745901683
0.762295081
0.778688609
0.795082007
0.811475404
0.827868933
0.844262396
0.860655794
0.877049191
0.89344272
0.909836117
0.926229515
0.942623043
0.959016506
0.975409904
0.991803301
1
1
1
1
1
1
1
1
1
1
1
1
1
1
1
1
1
1
1
1
1
1
1
1
1
1
1
1
1
1
0.991803367
0.975409904
0.959016441
0.942623043
0.926229646
0.909836117
0.893442654
0.877049257
0.860655859
0.844262331
0.827868933
0.811475535
0.795082007
0.778688544
0.762295146
0.745901749
0.72950822
0.713114757
0.69672136
0.680327962
0.663934434
0.647541036
0.631147639
0.61475411
0.598360647
