# Pulseq sequence file
# Created by PyPulseq

[VERSION]
major 1
minor 4
revision 2

[DEFINITIONS]
AdcRasterTime 1e-07 
BlockDurationRaster 1e-05 
GradientRasterTime 1e-05 
Name dzne_ep3d_default.seq 
RadiofrequencyRasterTime 5e-06 
TotalDuration 5.5 

# Format of blocks:
# NUM DUR RF  GX  GY  GZ  ADC  EXT
[BLOCKS]
   1 600   0   1   1   1  0  0
   2 50000   0   2   2   2  0  0
   3 50000   0   2   2   2  0  0
   4 49561   1   3   0   4  0  1
   5  55   0   5   0   0  1  0
   6  55   0   6   0   0  1  0
   7 2267   0   5   7   7  1  0
   8  57   0   8   9   0  1  0
   9  55   0  10  11   0  2  0
  10  55   0  12  11   0  2  0
  11  55   0  10  11   0  2  0
  12  55   0  12  11   0  2  0
  13  55   0  10  11   0  2  0
  14  55   0  12  11   0  2  0
  15  55   0  10  11   0  2  0
  16  55   0  12  11   0  2  0
  17  55   0  10  11   0  2  0
  18  55   0  12  11   0  2  0
  19  55   0  10  11   0  2  0
  20  55   0  12  11   0  2  0
  21  55   0  10  11   0  2  0
  22  55   0  12  11   0  2  0
  23  55   0  10  11   0  2  0
  24  55   0  12  11   0  2  0
  25  55   0  10  11   0  2  0
  26  55   0  12  11   0  2  0
  27  55   0  10  11   0  2  0
  28  55   0  12  11   0  2  0
  29  55   0  10  11   0  2  0
  30  55   0  12  11   0  2  0
  31  55   0  10  11   0  2  0
  32  55   0  12  11   0  2  0
  33  55   0  10  11   0  2  0
  34  55   0  12  11   0  2  0
  35  55   0  10  11   0  2  0
  36  55   0  12  11   0  2  0
  37  55   0  10  11   0  2  0
  38  55   0  12  11   0  2  0
  39  55   0  10  11   0  2  0
  40  55   0  12  11   0  2  0
  41  55   0  10  11   0  2  0
  42  55   0  12  11   0  2  0
  43  55   0  10  11   0  2  0
  44  55   0  12  11   0  2  0
  45  55   0  10  11   0  2  0
  46  55   0  12  11   0  2  0
  47  55   0  10  11   0  2  0
  48  55   0  12  11   0  2  0
  49  55   0  10  11   0  2  0
  50  55   0  12  11   0  2  0
  51  55   0  10  11   0  2  0
  52  55   0  12  11   0  2  0
  53  55   0  10  11   0  2  0
  54  55   0  12  11   0  2  0
  55  55   0  10  11   0  2  0
  56  55   0  12  11   0  2  0
  57  55   0  10  11   0  2  0
  58  55   0  12  11   0  2  0
  59  55   0  10  11   0  2  0
  60  55   0  12  11   0  2  0
  61  55   0  10  11   0  2  0
  62  55   0  12  11   0  2  0
  63  55   0  10  11   0  2  0
  64  55   0  12  11   0  2  0
  65  55   0  10  11   0  2  0
  66  55   0  12  11   0  2  0
  67  55   0  10  11   0  2  0
  68  55   0  12  11   0  2  0
  69  55   0  10  11   0  2  0
  70  55   0  12  11   0  2  0
  71  55   0  10  11   0  2  0
  72  55   0  12  11   0  2  0
  73  55   0  10  11   0  2  0
  74  55   0  12  11   0  2  0
  75  55   0  10  11   0  2  0
  76  55   0  12  11   0  2  0
  77  55   0  10  11   0  2  0
  78  55   0  12  11   0  2  0
  79  55   0  10  11   0  2  0
  80  55   0  12  11   0  2  0
  81  55   0  10  11   0  2  0
  82  55   0  12  11   0  2  0
  83  55   0  10  11   0  2  0
  84  55   0  12  11   0  2  0
  85  55   0  10  11   0  2  0
  86  55   0  12  11   0  2  0
  87  55   0  10  11   0  2  0
  88  55   0  12  11   0  2  0
  89  55   0  10  11   0  2  0
  90  55   0  12  11   0  2  0
  91  53   0  13  14   0  2  0
  92  63   0  15  16  17  0  0
  93 1273   2  18   0  19  0  0
  94  55   0   5   0   0  3  0
  95  55   0   6   0   0  3  0
  96 2267   0   5   7  20  3  0
  97  57   0   8   9   0  3  0
  98  55   0  10  11   0  4  0
  99  55   0  12  11   0  4  0
 100  55   0  10  11   0  4  0
 101  55   0  12  11   0  4  0
 102  55   0  10  11   0  4  0
 103  55   0  12  11   0  4  0
 104  55   0  10  11   0  4  0
 105  55   0  12  11   0  4  0
 106  55   0  10  11   0  4  0
 107  55   0  12  11   0  4  0
 108  55   0  10  11   0  4  0
 109  55   0  12  11   0  4  0
 110  55   0  10  11   0  4  0
 111  55   0  12  11   0  4  0
 112  55   0  10  11   0  4  0
 113  55   0  12  11   0  4  0
 114  55   0  10  11   0  4  0
 115  55   0  12  11   0  4  0
 116  55   0  10  11   0  4  0
 117  55   0  12  11   0  4  0
 118  55   0  10  11   0  4  0
 119  55   0  12  11   0  4  0
 120  55   0  10  11   0  4  0
 121  55   0  12  11   0  4  0
 122  55   0  10  11   0  4  0
 123  55   0  12  11   0  4  0
 124  55   0  10  11   0  4  0
 125  55   0  12  11   0  4  0
 126  55   0  10  11   0  4  0
 127  55   0  12  11   0  4  0
 128  55   0  10  11   0  4  0
 129  55   0  12  11   0  4  0
 130  55   0  10  11   0  4  0
 131  55   0  12  11   0  4  0
 132  55   0  10  11   0  4  0
 133  55   0  12  11   0  4  0
 134  55   0  10  11   0  4  0
 135  55   0  12  11   0  4  0
 136  55   0  10  11   0  4  0
 137  55   0  12  11   0  4  0
 138  55   0  10  11   0  4  0
 139  55   0  12  11   0  4  0
 140  55   0  10  11   0  4  0
 141  55   0  12  11   0  4  0
 142  55   0  10  11   0  4  0
 143  55   0  12  11   0  4  0
 144  55   0  10  11   0  4  0
 145  55   0  12  11   0  4  0
 146  55   0  10  11   0  4  0
 147  55   0  12  11   0  4  0
 148  55   0  10  11   0  4  0
 149  55   0  12  11   0  4  0
 150  55   0  10  11   0  4  0
 151  55   0  12  11   0  4  0
 152  55   0  10  11   0  4  0
 153  55   0  12  11   0  4  0
 154  55   0  10  11   0  4  0
 155  55   0  12  11   0  4  0
 156  55   0  10  11   0  4  0
 157  55   0  12  11   0  4  0
 158  55   0  10  11   0  4  0
 159  55   0  12  11   0  4  0
 160  55   0  10  11   0  4  0
 161  55   0  12  11   0  4  0
 162  55   0  10  11   0  4  0
 163  55   0  12  11   0  4  0
 164  55   0  10  11   0  4  0
 165  55   0  12  11   0  4  0
 166  55   0  10  11   0  4  0
 167  55   0  12  11   0  4  0
 168  55   0  10  11   0  4  0
 169  55   0  12  11   0  4  0
 170  55   0  10  11   0  4  0
 171  55   0  12  11   0  4  0
 172  55   0  10  11   0  4  0
 173  55   0  12  11   0  4  0
 174  55   0  10  11   0  4  0
 175  55   0  12  11   0  4  0
 176  55   0  10  11   0  4  0
 177  55   0  12  11   0  4  0
 178  55   0  10  11   0  4  0
 179  55   0  12  11   0  4  0
 180  53   0  13  14   0  4  0
 181  63   0  15  16  21  0  0
 182 1273   3  18   0  19  0  0
 183  55   0   5   0   0  5  0
 184  55   0   6   0   0  5  0
 185 2267   0   5   7  22  5  0
 186  57   0   8   9   0  5  0
 187  55   0  10  11   0  6  0
 188  55   0  12  11   0  6  0
 189  55   0  10  11   0  6  0
 190  55   0  12  11   0  6  0
 191  55   0  10  11   0  6  0
 192  55   0  12  11   0  6  0
 193  55   0  10  11   0  6  0
 194  55   0  12  11   0  6  0
 195  55   0  10  11   0  6  0
 196  55   0  12  11   0  6  0
 197  55   0  10  11   0  6  0
 198  55   0  12  11   0  6  0
 199  55   0  10  11   0  6  0
 200  55   0  12  11   0  6  0
 201  55   0  10  11   0  6  0
 202  55   0  12  11   0  6  0
 203  55   0  10  11   0  6  0
 204  55   0  12  11   0  6  0
 205  55   0  10  11   0  6  0
 206  55   0  12  11   0  6  0
 207  55   0  10  11   0  6  0
 208  55   0  12  11   0  6  0
 209  55   0  10  11   0  6  0
 210  55   0  12  11   0  6  0
 211  55   0  10  11   0  6  0
 212  55   0  12  11   0  6  0
 213  55   0  10  11   0  6  0
 214  55   0  12  11   0  6  0
 215  55   0  10  11   0  6  0
 216  55   0  12  11   0  6  0
 217  55   0  10  11   0  6  0
 218  55   0  12  11   0  6  0
 219  55   0  10  11   0  6  0
 220  55   0  12  11   0  6  0
 221  55   0  10  11   0  6  0
 222  55   0  12  11   0  6  0
 223  55   0  10  11   0  6  0
 224  55   0  12  11   0  6  0
 225  55   0  10  11   0  6  0
 226  55   0  12  11   0  6  0
 227  55   0  10  11   0  6  0
 228  55   0  12  11   0  6  0
 229  55   0  10  11   0  6  0
 230  55   0  12  11   0  6  0
 231  55   0  10  11   0  6  0
 232  55   0  12  11   0  6  0
 233  55   0  10  11   0  6  0
 234  55   0  12  11   0  6  0
 235  55   0  10  11   0  6  0
 236  55   0  12  11   0  6  0
 237  55   0  10  11   0  6  0
 238  55   0  12  11   0  6  0
 239  55   0  10  11   0  6  0
 240  55   0  12  11   0  6  0
 241  55   0  10  11   0  6  0
 242  55   0  12  11   0  6  0
 243  55   0  10  11   0  6  0
 244  55   0  12  11   0  6  0
 245  55   0  10  11   0  6  0
 246  55   0  12  11   0  6  0
 247  55   0  10  11   0  6  0
 248  55   0  12  11   0  6  0
 249  55   0  10  11   0  6  0
 250  55   0  12  11   0  6  0
 251  55   0  10  11   0  6  0
 252  55   0  12  11   0  6  0
 253  55   0  10  11   0  6  0
 254  55   0  12  11   0  6  0
 255  55   0  10  11   0  6  0
 256  55   0  12  11   0  6  0
 257  55   0  10  11   0  6  0
 258  55   0  12  11   0  6  0
 259  55   0  10  11   0  6  0
 260  55   0  12  11   0  6  0
 261  55   0  10  11   0  6  0
 262  55   0  12  11   0  6  0
 263  55   0  10  11   0  6  0
 264  55   0  12  11   0  6  0
 265  55   0  10  11   0  6  0
 266  55   0  12  11   0  6  0
 267  55   0  10  11   0  6  0
 268  55   0  12  11   0  6  0
 269  53   0  13  14   0  6  0
 270  63   0  15  16  23  0  0
 271 1273   4  18   0  19  0  0
 272  55   0   5   0   0  7  0
 273  55   0   6   0   0  7  0
 274 2267   0   5   7  24  7  0
 275  57   0   8   9   0  7  0
 276  55   0  10  11   0  8  0
 277  55   0  12  11   0  8  0
 278  55   0  10  11   0  8  0
 279  55   0  12  11   0  8  0
 280  55   0  10  11   0  8  0
 281  55   0  12  11   0  8  0
 282  55   0  10  11   0  8  0
 283  55   0  12  11   0  8  0
 284  55   0  10  11   0  8  0
 285  55   0  12  11   0  8  0
 286  55   0  10  11   0  8  0
 287  55   0  12  11   0  8  0
 288  55   0  10  11   0  8  0
 289  55   0  12  11   0  8  0
 290  55   0  10  11   0  8  0
 291  55   0  12  11   0  8  0
 292  55   0  10  11   0  8  0
 293  55   0  12  11   0  8  0
 294  55   0  10  11   0  8  0
 295  55   0  12  11   0  8  0
 296  55   0  10  11   0  8  0
 297  55   0  12  11   0  8  0
 298  55   0  10  11   0  8  0
 299  55   0  12  11   0  8  0
 300  55   0  10  11   0  8  0
 301  55   0  12  11   0  8  0
 302  55   0  10  11   0  8  0
 303  55   0  12  11   0  8  0
 304  55   0  10  11   0  8  0
 305  55   0  12  11   0  8  0
 306  55   0  10  11   0  8  0
 307  55   0  12  11   0  8  0
 308  55   0  10  11   0  8  0
 309  55   0  12  11   0  8  0
 310  55   0  10  11   0  8  0
 311  55   0  12  11   0  8  0
[RF]
1      427.461 1 2 0 494260 0 8.72665
2      427.461 1 2 0 11380 0 13.09
3      427.461 1 2 0 11380 0 18.326
4      427.461 1 2 0 11380 0 24.4346
5      427.461 1 2 0 11380 0 31.4159
6      427.461 1 2 0 11380 0 39.2699
7      427.461 1 2 0 11380 0 47.9966
8      427.461 1 2 0 11380 0 57.5959
9      427.461 1 2 0 11380 0 68.0678
10      427.461 1 2 0 11380 0 79.4125
11      427.461 1 2 0 11380 0 91.6298
12      427.461 1 2 0 11380 0 104.72
13      427.461 1 2 0 11380 0 118.682
14      427.461 1 2 0 11380 0 133.518
15      427.461 1 2 0 11380 0 149.226
16      427.461 1 2 0 11380 0 165.806
17      427.461 1 2 0 11380 0 183.26
18      427.461 1 2 0 11380 0 201.586
19      427.461 1 2 0 11380 0 220.784
20      427.461 1 2 0 11380 0 240.855
21      427.461 1 2 0 11380 0 261.799
22      427.461 1 2 0 11380 0 283.616
23      427.461 1 2 0 11380 0 306.305
24      427.461 1 2 0 11380 0 329.867
25      427.461 1 2 0 11380 0 354.302
26      427.461 1 2 0 11380 0 379.609
27      427.461 1 2 0 11380 0 405.789
28      427.461 1 2 0 11380 0 432.842
29      427.461 1 2 0 11380 0 460.767
30      427.461 1 2 0 11380 0 489.565
31      427.461 1 2 0 11380 0 519.235
32      427.461 1 2 0 11380 0 549.779
33      427.461 1 2 0 11380 0 581.195
34      427.461 1 2 0 11380 0 613.483
35      427.461 1 2 0 11380 0 646.644
36      427.461 1 2 0 11380 0 680.678
37      427.461 1 2 0 11380 0 715.585
38      427.461 1 2 0 11380 0 751.364
39      427.461 1 2 0 11380 0 788.016
40      427.461 1 2 0 11380 0 825.541
41      427.461 1 2 0 11380 0 863.938
42      427.461 1 2 0 11380 0 903.208
43      427.461 1 2 0 11380 0 943.35
44      427.461 1 2 0 11380 0 984.366
45      427.461 1 2 0 11380 0 1026.25
46      427.461 1 2 0 11380 0 1069.01
47      427.461 1 2 0 11380 0 1112.65
48      427.461 1 2 0 11380 0 1157.15

# Format of arbitrary gradients:
#   time_shape_id of 0 means default timing (stepping with grad_raster starting at 1/2 of grad_raster)
# id amplitude amp_shape_id time_shape_id delay
# ..      Hz/m       ..         ..          us
[GRADIENTS]
4      -687838 3 0 0
8      -970023 4 0 0
9      -132276 5 0 0
10       970023 6 0 0
11      -132276 7 0 0
12      -970023 6 0 0
13       970023 8 0 0
14     -26455.3 9 0 0
19      -687838 10 0 0

# Format of trapezoid gradients:
# id amplitude rise flat fall delay
# ..      Hz/m   us   us   us    us
[TRAP]
 1        42576 1000 4000 1000   0
 2        42576 1000 4000 1000 494000
 3 -1.13169e+06 160   20 160 495270
 5       970023 130  290 130   0
 6      -970023 130  290 130   0
 7       317463  50  580  50 21990
15  1.38675e+06 200  230 200   0
16      -353041  50  530  50   0
17      -344831  50  530  50   0
18 -1.13169e+06 160   20 160 12390
20       304236  50  580  50 21990
21      -330463  50  530  50   0
22       291008  50  580  50 21990
23      -316095  50  530  50   0
24       277781  50  580  50 21990
25      -301727  50  530  50   0
26       264553  50  580  50 21990
27      -287359  50  530  50   0
28       251325  50  580  50 21990
29      -272991  50  530  50   0
30       238098  50  580  50 21990
31      -258623  50  530  50   0
32       224870  50  580  50 21990
33      -244255  50  530  50   0
34       211642  50  580  50 21990
35      -229887  50  530  50   0
36       198415  50  580  50 21990
37      -215519  50  530  50   0
38       185187  50  580  50 21990
39      -201151  50  530  50   0
40       171959  50  580  50 21990
41      -186783  50  530  50   0
42       158732  50  580  50 21990
43      -172415  50  530  50   0
44       145504  50  580  50 21990
45      -158048  50  530  50   0
46       132276  50  580  50 21990
47      -143680  50  530  50   0
48       119049  50  580  50 21990
49      -129312  50  530  50   0
50       105821  50  580  50 21990
51      -114944  50  530  50   0
52      92593.5  50  580  50 21990
53      -100576  50  530  50   0
54      79365.8  50  580  50 21990
55     -86207.7  50  530  50   0
56      66138.2  50  580  50 21990
57     -71839.8  50  530  50   0
58      52910.6  50  580  50 21990
59     -57471.8  50  530  50   0
60      39682.9  50  580  50 21990
61     -43103.9  50  530  50   0
62      26455.3  50  580  50 21990
63     -28735.9  50  530  50   0
64      13227.6  50  580  50 21990
65       -14368  50  530  50   0
66            0  50  580  50 21990
67            0  50  530  50   0
68     -13227.6  50  580  50 21990
69        14368  50  530  50   0
70     -26455.3  50  580  50 21990
71      28735.9  50  530  50   0
72     -39682.9  50  580  50 21990
73      43103.9  50  530  50   0
74     -52910.6  50  580  50 21990
75      57471.8  50  530  50   0
76     -66138.2  50  580  50 21990
77      71839.8  50  530  50   0
78     -79365.8  50  580  50 21990
79      86207.7  50  530  50   0
80     -92593.5  50  580  50 21990
81       100576  50  530  50   0
82      -105821  50  580  50 21990
83       114944  50  530  50   0
84      -119049  50  580  50 21990
85       129312  50  530  50   0
86      -132276  50  580  50 21990
87       143680  50  530  50   0
88      -145504  50  580  50 21990
89       158048  50  530  50   0
90      -158732  50  580  50 21990
91       172415  50  530  50   0
92      -171959  50  580  50 21990
93       186783  50  530  50   0
94      -185187  50  580  50 21990
95       201151  50  530  50   0
96      -198415  50  580  50 21990
97       215519  50  530  50   0
98      -211642  50  580  50 21990
99       229887  50  530  50   0
100      -224870  50  580  50 21990
101       244255  50  530  50   0
102      -238098  50  580  50 21990
103       258623  50  530  50   0
104      -251325  50  580  50 21990
105       272991  50  530  50   0
106      -264553  50  580  50 21990
107       287359  50  530  50   0
108      -277781  50  580  50 21990
109       301727  50  530  50   0
110      -291008  50  580  50 21990
111       316095  50  530  50   0
112      -304236  50  580  50 21990
113       330463  50  530  50   0

# Format of ADC events:
# id num dwell delay freq phase
# ..  ..    ns    us   Hz   rad
[ADC]
1 168 2900 32 -0 7.15585
2 168 2900 12 -0 7.15585
3 168 2900 32 -0 11.5846
4 168 2900 12 -0 11.5846
5 168 2900 32 -0 16.8861
6 168 2900 12 -0 16.8861
7 168 2900 32 -0 23.0602
8 168 2900 12 -0 23.0602
9 168 2900 32 -0 30.1069
10 168 2900 12 -0 30.1069
11 168 2900 32 -0 38.0264
12 168 2900 12 -0 38.0264
13 168 2900 32 -0 46.8185
14 168 2900 12 -0 46.8185
15 168 2900 32 -0 56.4832
16 168 2900 12 -0 56.4832
17 168 2900 32 -0 67.0206
18 168 2900 12 -0 67.0206
19 168 2900 32 -0 78.4307
20 168 2900 12 -0 78.4307
21 168 2900 32 -0 90.7135
22 168 2900 12 -0 90.7135
23 168 2900 32 -0 103.869
24 168 2900 12 -0 103.869
25 168 2900 32 -0 117.897
26 168 2900 12 -0 117.897
27 168 2900 32 -0 132.798
28 168 2900 12 -0 132.798
29 168 2900 32 -0 148.571
30 168 2900 12 -0 148.571
31 168 2900 32 -0 165.217
32 168 2900 12 -0 165.217
33 168 2900 32 -0 182.736
34 168 2900 12 -0 182.736
35 168 2900 32 -0 201.127
36 168 2900 12 -0 201.127
37 168 2900 32 -0 220.391
38 168 2900 12 -0 220.391
39 168 2900 32 -0 240.528
40 168 2900 12 -0 240.528
41 168 2900 32 -0 261.538
42 168 2900 12 -0 261.538
43 168 2900 32 -0 283.42
44 168 2900 12 -0 283.42
45 168 2900 32 -0 306.174
46 168 2900 12 -0 306.174
47 168 2900 32 -0 329.802
48 168 2900 12 -0 329.802
49 168 2900 32 -0 354.302
50 168 2900 12 -0 354.302
51 168 2900 32 -0 379.675
52 168 2900 12 -0 379.675
53 168 2900 32 -0 405.92
54 168 2900 12 -0 405.92
55 168 2900 32 -0 433.038
56 168 2900 12 -0 433.038
57 168 2900 32 -0 461.029
58 168 2900 12 -0 461.029
59 168 2900 32 -0 489.892
60 168 2900 12 -0 489.892
61 168 2900 32 -0 519.628
62 168 2900 12 -0 519.628
63 168 2900 32 -0 550.237
64 168 2900 12 -0 550.237
65 168 2900 32 -0 581.718
66 168 2900 12 -0 581.718
67 168 2900 32 -0 614.072
68 168 2900 12 -0 614.072
69 168 2900 32 -0 647.299
70 168 2900 12 -0 647.299
71 168 2900 32 -0 681.398
72 168 2900 12 -0 681.398
73 168 2900 32 -0 716.37
74 168 2900 12 -0 716.37
75 168 2900 32 -0 752.215
76 168 2900 12 -0 752.215
77 168 2900 32 -0 788.932
78 168 2900 12 -0 788.932
79 168 2900 32 -0 826.522
80 168 2900 12 -0 826.522
81 168 2900 32 -0 864.985
82 168 2900 12 -0 864.985
83 168 2900 32 -0 904.321
84 168 2900 12 -0 904.321
85 168 2900 32 -0 944.529
86 168 2900 12 -0 944.529
87 168 2900 32 -0 985.609
88 168 2900 12 -0 985.609
89 168 2900 32 -0 1027.56
90 168 2900 12 -0 1027.56
91 168 2900 32 -0 1070.39
92 168 2900 12 -0 1070.39
93 168 2900 32 -0 1114.09
94 168 2900 12 -0 1114.09
95 168 2900 32 -0 1158.66
96 168 2900 12 -0 1158.66

# Format of extension lists:
# id type ref next_id
# next_id of 0 terminates the list
# Extension list is followed by extension specifications
[EXTENSIONS]
1 1 1 0

# Extension specification for digital output and input triggers:
# id type channel delay (us) duration (us)
extension TRIGGERS 1
1 1 3 494160 200

# Sequence Shapes
[SHAPES]

shape_id 1
num_samples 200
0
0
8
0.0005233
0
-0.0005233
0
0
0
0.0005233
0.0005233
1
-0.0005233
-0.0005233
1
0.0010466
0.0010465
0.0010466
0
-0.0005233
-0.0015698
-0.0005233
0.0026164
0.0020932
0.0005232
0
-0.0020931
-0.0031397
0.0020931
0.003663
0.0026165
0.0010465
-0.0015698
-0.003663
-0.003663
0
0.0052328
0.0047096
0.0031397
0
-0.003663
-0.0062794
-0.0010466
0.0083726
0.0068027
0.0026164
-0.0015698
-0.0068027
-0.0099425
0.0062795
0.010989
0.007326
0.0020931
-0.0047095
-0.0109891
-0.0120355
0.0162218
0.0141288
0.0078493
-0.0005233
-0.0099425
-0.0172684
-0.0026164
0.0225013
0.0167451
0.007326
-0.0047095
-0.0172685
-0.0272109
0.0172685
0.029304
0.0204082
0.0052328
-0.0120356
-0.0298273
-0.032967
0.0465725
0.040293
0.0251177
0.0010466
-0.0266876
-0.0523286
-0.0062794
0.0753532
0.0648875
0.03663
-0.0057561
-0.0580848
-0.1119833
0.0926217
0.1925693
0.204605
0.1925693
0.1559393
0.0989011
0.0298273
-0.043956
-0.1119833
-0.1653584
-0.1967557
-0.2040816
-0.1873365
-0.0308739
0.1015176
0.0470957
-0.003663
-0.043956
-0.0680272
-0.0758765
0.0334903
0.047619
0.0209315
-0.0062795
-0.0282574
-0.0429095
-0.0371533
0.040293
0.0261643
0.0088959
-0.0088959
-0.0225013
-0.0303506
-0.0047095
0.0251177
0.0151753
0.0020931
-0.0094191
-0.018315
-0.0225013
0.010989
0.0162218
0.0078493
-0.0015698
-0.0094192
-0.014652
-0.0130821
0.014652
0.0099424
0.0031397
-0.0031397
-0.0083726
-0.0115123
-0.0015698
0.0094191
0.0057562
0.0010465
-0.003663
-0.007326
-0.0083725
0.0041862
0.0057562
0.0031397
-0.0010466
-0.0031397
-0.0052328
-0.0052329
0.0052329
0.003663
0.0010465
-0.0015698
-0.0026165
-0.003663
-0.0010465
0.0031397
0.0015698
0
-0.0010465
-0.0020932
-0.0026164
0.0010466
0.0010465
0.0010466
0
-0.0010466
-0.0010465
-0.0010466
0.0010466
0.0005233
0
-0.0005233
-0.0005233
1
0
0
0
0.0005233
-0.0005233
0
0
7

shape_id 2
num_samples 200
0
0
6
0.5
0
0
3
-0.5
0
0
3
0.5
0
0
4
-0.5
0
0
4
0.5
0
0
3
-0.5
0
0
4
0.5
0
0
4
-0.5
0
0
3
0.5
0
0
4
-0.5
0
0
4
0.5
0
0
3
-0.5
0
0
4
0.5
0
0
4
-0.5
0
0
10
0.5
0
0
4
-0.5
0
0
3
0.5
0
0
4
-0.5
0
0
4
0.5
0
0
3
-0.5
0
0
4
0.5
0
0
4
-0.5
0
0
3
0.5
0
0
4
-0.5
0
0
4
0.5
0
0
3
-0.5
0
0
4
0.5
0
0
3
-0.5
0
0
4

shape_id 3
num_samples 49561
0
0
49414
0.0201923
0.0403846
0.0403846
2
0.0403847
0.0403846
0.0403846
2
0.0201923
0
0
97
-0.0504808
-0.1009615
-0.1009615
1
-0.1004808
-0.1
-0.1
7
-0.05
0
0
8
0.05
0.1
0.1
7

shape_id 4
num_samples 57
0.0384615
0.0769231
0.0769231
1
0.076923
0.0769231
0.0769231
2
0.076923
0.0769231
0.0769231
1
0.0384615
0
0
26
-0.0384615
-0.0769231
-0.0769231
1
-0.076923
-0.0769231
-0.0769231
2
-0.076923
-0.0769231
-0.0769231
1
-0.076923
-0.0769231

shape_id 5
num_samples 57
0
0
50
0.2
0.4
0.4
0
0
-0.4

shape_id 6
num_samples 55
0.1923077
0.0769231
0.076923
0.0769231
0.0769231
2
0.076923
0.0769231
0.0769231
1
0.0384615
0
0
26
-0.0384615
-0.0769231
-0.0769231
1
-0.076923
-0.0769231
-0.0769231
2
-0.076923
-0.0769231
-0.0769231
1
-0.076923
-0.0769231

shape_id 7
num_samples 55
0.2
-0.2
0
0
46
0.2
0.4
0.4
0
0
-0.4

shape_id 8
num_samples 53
0.1923077
0.0769231
0.076923
0.0769231
0.0769231
2
0.076923
0.0769231
0.0769231
1
0.0384615
0
0
26
-0.0384615
-0.0769231
-0.0769231
1
-0.076923
-0.0769231
-0.0769231
2
-0.076923
-0.0769231
-0.0769231
1

shape_id 9
num_samples 1
1

shape_id 10
num_samples 1273
0
0
1126
0.0201923
0.0403846
0.0403846
2
0.0403847
0.0403846
0.0403846
2
0.0201923
0
0
97
-0.0504808
-0.1009615
-0.1009615
1
-0.1004808
-0.1
-0.1
7
-0.05
0
0
8
0.05
0.1
0.1
7


[SIGNATURE]
# This is the hash of the Pulseq file, calculated right before the [SIGNATURE] section was added
# It can be reproduced/verified with md5sum if the file trimmed to the position right above [SIGNATURE]
# The new line character preceding [SIGNATURE] BELONGS to the signature (and needs to be stripped away for recalculating/verification)
Type md5
Hash ca0ff6304cc4796de0f044a65bcf8f4f
