# Pulseq sequence file
# Created by PyPulseq

[VERSION]
major 1
minor 4
revision 2

[DEFINITIONS]
AdcRasterTime 1e-07 
BlockDurationRaster 1e-05 
GradientRasterTime 1e-05 
Name dzne_ep3d_default.seq 
RadiofrequencyRasterTime 5e-06 
TotalDuration 5.5 

# Format of blocks:
# NUM DUR RF  GX  GY  GZ  ADC  EXT
[BLOCKS]
   1   0   0   0   0   0  0  0
   2 600   0   1   1   1  0  0
   3 50000   0   2   2   2  0  0
   4 50000   0   2   2   2  0  0
   5 49400   0   0   0   0  0  0
   6  16   0   0   0   0  0  0
   7 114   1   3   0   4  0  1
   8  31   0   5   0   6  0  0
   9   0   0   0   0   0  0  0
  10  55   0   7   0   0  1  0
  11   0   0   0   0   0  0  0
  12  55   0   8   0   0  1  0
  13   0   0   0   0   0  0  0
  14  55   0   9   0   0  1  0
  15   0   0   0   0   0  0  0
  16 2212   0   0  10  10  0  0
  17   0   0   0   0   0  0  0
  18  57   0  11  12   0  1  0
  19  55   0  13  14   0  2  0
  20  55   0  15  14   0  2  0
  21  55   0  13  14   0  2  0
  22  55   0  15  14   0  2  0
  23  55   0  13  14   0  2  0
  24  55   0  15  14   0  2  0
  25  55   0  13  14   0  2  0
  26  55   0  15  14   0  2  0
  27  55   0  13  14   0  2  0
  28  55   0  15  14   0  2  0
  29  55   0  13  14   0  2  0
  30  55   0  15  14   0  2  0
  31  55   0  13  14   0  2  0
  32  55   0  15  14   0  2  0
  33  55   0  13  14   0  2  0
  34  55   0  15  14   0  2  0
  35  55   0  13  14   0  2  0
  36  55   0  15  14   0  2  0
  37  55   0  13  14   0  2  0
  38  55   0  15  14   0  2  0
  39  55   0  13  14   0  2  0
  40  55   0  15  14   0  2  0
  41  55   0  13  14   0  2  0
  42  55   0  15  14   0  2  0
  43  55   0  13  14   0  2  0
  44  55   0  15  14   0  2  0
  45  55   0  13  14   0  2  0
  46  55   0  15  14   0  2  0
  47  55   0  13  14   0  2  0
  48  55   0  15  14   0  2  0
  49  55   0  13  14   0  2  0
  50  55   0  15  14   0  2  0
  51  55   0  13  14   0  2  0
  52  55   0  15  14   0  2  0
  53  55   0  13  14   0  2  0
  54  55   0  15  14   0  2  0
  55  55   0  13  14   0  2  0
  56  55   0  15  14   0  2  0
  57  55   0  13  14   0  2  0
  58  55   0  15  14   0  2  0
  59  55   0  13  14   0  2  0
  60  55   0  15  14   0  2  0
  61  55   0  13  14   0  2  0
  62  55   0  15  14   0  2  0
  63  55   0  13  14   0  2  0
  64  55   0  15  14   0  2  0
  65  55   0  13  14   0  2  0
  66  55   0  15  14   0  2  0
  67  55   0  13  14   0  2  0
  68  55   0  15  14   0  2  0
  69  55   0  13  14   0  2  0
  70  55   0  15  14   0  2  0
  71  55   0  13  14   0  2  0
  72  55   0  15  14   0  2  0
  73  55   0  13  14   0  2  0
  74  55   0  15  14   0  2  0
  75  55   0  13  14   0  2  0
  76  55   0  15  14   0  2  0
  77  55   0  13  14   0  2  0
  78  55   0  15  14   0  2  0
  79  55   0  13  14   0  2  0
  80  55   0  15  14   0  2  0
  81  55   0  13  14   0  2  0
  82  55   0  15  14   0  2  0
  83  55   0  13  14   0  2  0
  84  55   0  15  14   0  2  0
  85  55   0  13  14   0  2  0
  86  55   0  15  14   0  2  0
  87  55   0  13  14   0  2  0
  88  55   0  15  14   0  2  0
  89  55   0  13  14   0  2  0
  90  55   0  15  14   0  2  0
  91  55   0  13  14   0  2  0
  92  55   0  15  14   0  2  0
  93  55   0  13  14   0  2  0
  94  55   0  15  14   0  2  0
  95  55   0  13  14   0  2  0
  96  55   0  15  14   0  2  0
  97  55   0  13  14   0  2  0
  98  55   0  15  14   0  2  0
  99  55   0  13  14   0  2  0
 100  55   0  15  14   0  2  0
 101  53   0  16  17   0  2  0
 102   0   0   0   0   0  0  0
 103  63   0  18  19  20  0  0
 104   0   0   0   0   0  0  0
 105 1128   0   0   0   0  0  0
 106 114   2   3   0   4  0  0
 107  31   0   5   0   6  0  0
 108   0   0   0   0   0  0  0
 109  55   0   7   0   0  3  0
 110   0   0   0   0   0  0  0
 111  55   0   8   0   0  3  0
 112   0   0   0   0   0  0  0
 113  55   0   9   0   0  3  0
 114   0   0   0   0   0  0  0
 115 2212   0   0  10  21  0  0
 116   0   0   0   0   0  0  0
 117  57   0  11  12   0  3  0
 118  55   0  13  14   0  4  0
 119  55   0  15  14   0  4  0
 120  55   0  13  14   0  4  0
 121  55   0  15  14   0  4  0
 122  55   0  13  14   0  4  0
 123  55   0  15  14   0  4  0
 124  55   0  13  14   0  4  0
 125  55   0  15  14   0  4  0
 126  55   0  13  14   0  4  0
 127  55   0  15  14   0  4  0
 128  55   0  13  14   0  4  0
 129  55   0  15  14   0  4  0
 130  55   0  13  14   0  4  0
 131  55   0  15  14   0  4  0
 132  55   0  13  14   0  4  0
 133  55   0  15  14   0  4  0
 134  55   0  13  14   0  4  0
 135  55   0  15  14   0  4  0
 136  55   0  13  14   0  4  0
 137  55   0  15  14   0  4  0
 138  55   0  13  14   0  4  0
 139  55   0  15  14   0  4  0
 140  55   0  13  14   0  4  0
 141  55   0  15  14   0  4  0
 142  55   0  13  14   0  4  0
 143  55   0  15  14   0  4  0
 144  55   0  13  14   0  4  0
 145  55   0  15  14   0  4  0
 146  55   0  13  14   0  4  0
 147  55   0  15  14   0  4  0
 148  55   0  13  14   0  4  0
 149  55   0  15  14   0  4  0
 150  55   0  13  14   0  4  0
 151  55   0  15  14   0  4  0
 152  55   0  13  14   0  4  0
 153  55   0  15  14   0  4  0
 154  55   0  13  14   0  4  0
 155  55   0  15  14   0  4  0
 156  55   0  13  14   0  4  0
 157  55   0  15  14   0  4  0
 158  55   0  13  14   0  4  0
 159  55   0  15  14   0  4  0
 160  55   0  13  14   0  4  0
 161  55   0  15  14   0  4  0
 162  55   0  13  14   0  4  0
 163  55   0  15  14   0  4  0
 164  55   0  13  14   0  4  0
 165  55   0  15  14   0  4  0
 166  55   0  13  14   0  4  0
 167  55   0  15  14   0  4  0
 168  55   0  13  14   0  4  0
 169  55   0  15  14   0  4  0
 170  55   0  13  14   0  4  0
 171  55   0  15  14   0  4  0
 172  55   0  13  14   0  4  0
 173  55   0  15  14   0  4  0
 174  55   0  13  14   0  4  0
 175  55   0  15  14   0  4  0
 176  55   0  13  14   0  4  0
 177  55   0  15  14   0  4  0
 178  55   0  13  14   0  4  0
 179  55   0  15  14   0  4  0
 180  55   0  13  14   0  4  0
 181  55   0  15  14   0  4  0
 182  55   0  13  14   0  4  0
 183  55   0  15  14   0  4  0
 184  55   0  13  14   0  4  0
 185  55   0  15  14   0  4  0
 186  55   0  13  14   0  4  0
 187  55   0  15  14   0  4  0
 188  55   0  13  14   0  4  0
 189  55   0  15  14   0  4  0
 190  55   0  13  14   0  4  0
 191  55   0  15  14   0  4  0
 192  55   0  13  14   0  4  0
 193  55   0  15  14   0  4  0
 194  55   0  13  14   0  4  0
 195  55   0  15  14   0  4  0
 196  55   0  13  14   0  4  0
 197  55   0  15  14   0  4  0
 198  55   0  13  14   0  4  0
 199  55   0  15  14   0  4  0
 200  53   0  16  17   0  4  0
 201   0   0   0   0   0  0  0
 202  63   0  18  19  22  0  0
 203   0   0   0   0   0  0  0
 204 1128   0   0   0   0  0  0
 205 114   3   3   0   4  0  0
 206  31   0   5   0   6  0  0
 207   0   0   0   0   0  0  0
 208  55   0   7   0   0  5  0
 209   0   0   0   0   0  0  0
 210  55   0   8   0   0  5  0
 211   0   0   0   0   0  0  0
 212  55   0   9   0   0  5  0
 213   0   0   0   0   0  0  0
 214 2212   0   0  10  23  0  0
 215   0   0   0   0   0  0  0
 216  57   0  11  12   0  5  0
 217  55   0  13  14   0  6  0
 218  55   0  15  14   0  6  0
 219  55   0  13  14   0  6  0
 220  55   0  15  14   0  6  0
 221  55   0  13  14   0  6  0
 222  55   0  15  14   0  6  0
 223  55   0  13  14   0  6  0
 224  55   0  15  14   0  6  0
 225  55   0  13  14   0  6  0
 226  55   0  15  14   0  6  0
 227  55   0  13  14   0  6  0
 228  55   0  15  14   0  6  0
 229  55   0  13  14   0  6  0
 230  55   0  15  14   0  6  0
 231  55   0  13  14   0  6  0
 232  55   0  15  14   0  6  0
 233  55   0  13  14   0  6  0
 234  55   0  15  14   0  6  0
 235  55   0  13  14   0  6  0
 236  55   0  15  14   0  6  0
 237  55   0  13  14   0  6  0
 238  55   0  15  14   0  6  0
 239  55   0  13  14   0  6  0
 240  55   0  15  14   0  6  0
 241  55   0  13  14   0  6  0
 242  55   0  15  14   0  6  0
 243  55   0  13  14   0  6  0
 244  55   0  15  14   0  6  0
 245  55   0  13  14   0  6  0
 246  55   0  15  14   0  6  0
 247  55   0  13  14   0  6  0
 248  55   0  15  14   0  6  0
 249  55   0  13  14   0  6  0
 250  55   0  15  14   0  6  0
 251  55   0  13  14   0  6  0
 252  55   0  15  14   0  6  0
 253  55   0  13  14   0  6  0
 254  55   0  15  14   0  6  0
 255  55   0  13  14   0  6  0
 256  55   0  15  14   0  6  0
 257  55   0  13  14   0  6  0
 258  55   0  15  14   0  6  0
 259  55   0  13  14   0  6  0
 260  55   0  15  14   0  6  0
 261  55   0  13  14   0  6  0
 262  55   0  15  14   0  6  0
 263  55   0  13  14   0  6  0
 264  55   0  15  14   0  6  0
 265  55   0  13  14   0  6  0
 266  55   0  15  14   0  6  0
 267  55   0  13  14   0  6  0
 268  55   0  15  14   0  6  0
 269  55   0  13  14   0  6  0
 270  55   0  15  14   0  6  0
 271  55   0  13  14   0  6  0
 272  55   0  15  14   0  6  0
 273  55   0  13  14   0  6  0
 274  55   0  15  14   0  6  0
 275  55   0  13  14   0  6  0
 276  55   0  15  14   0  6  0
 277  55   0  13  14   0  6  0
 278  55   0  15  14   0  6  0
 279  55   0  13  14   0  6  0
 280  55   0  15  14   0  6  0
 281  55   0  13  14   0  6  0
 282  55   0  15  14   0  6  0
 283  55   0  13  14   0  6  0
 284  55   0  15  14   0  6  0
 285  55   0  13  14   0  6  0
 286  55   0  15  14   0  6  0
 287  55   0  13  14   0  6  0
 288  55   0  15  14   0  6  0
 289  55   0  13  14   0  6  0
 290  55   0  15  14   0  6  0
 291  55   0  13  14   0  6  0
 292  55   0  15  14   0  6  0
 293  55   0  13  14   0  6  0
 294  55   0  15  14   0  6  0
 295  55   0  13  14   0  6  0
 296  55   0  15  14   0  6  0
 297  55   0  13  14   0  6  0
 298  55   0  15  14   0  6  0
 299  53   0  16  17   0  6  0
 300   0   0   0   0   0  0  0
 301  63   0  18  19  24  0  0
 302   0   0   0   0   0  0  0
 303 1128   0   0   0   0  0  0
 304 114   4   3   0   4  0  0
 305  31   0   5   0   6  0  0
 306   0   0   0   0   0  0  0
 307  55   0   7   0   0  7  0
 308   0   0   0   0   0  0  0
 309  55   0   8   0   0  7  0
 310   0   0   0   0   0  0  0
 311  55   0   9   0   0  7  0
 312   0   0   0   0   0  0  0
[RF]
1      427.461 2 3 0 100 0 8.72665
2      427.461 2 3 0 100 0 13.09
3      427.461 2 3 0 100 0 18.326
4      427.461 2 3 0 100 0 24.4346
5      427.461 2 3 0 100 0 31.4159
6      427.461 2 3 0 100 0 39.2699
7      427.461 2 3 0 100 0 47.9966
8      427.461 2 3 0 100 0 57.5959
9      427.461 2 3 0 100 0 68.0678
10      427.461 2 3 0 100 0 79.4125
11      427.461 2 3 0 100 0 91.6298
12      427.461 2 3 0 100 0 104.72
13      427.461 2 3 0 100 0 118.682
14      427.461 2 3 0 100 0 133.518
15      427.461 2 3 0 100 0 149.226
16      427.461 2 3 0 100 0 165.806
17      427.461 2 3 0 100 0 183.26
18      427.461 2 3 0 100 0 201.586
19      427.461 2 3 0 100 0 220.784
20      427.461 2 3 0 100 0 240.855
21      427.461 2 3 0 100 0 261.799
22      427.461 2 3 0 100 0 283.616
23      427.461 2 3 0 100 0 306.305
24      427.461 2 3 0 100 0 329.867
25      427.461 2 3 0 100 0 354.302
26      427.461 2 3 0 100 0 379.609
27      427.461 2 3 0 100 0 405.789
28      427.461 2 3 0 100 0 432.842
29      427.461 2 3 0 100 0 460.767
30      427.461 2 3 0 100 0 489.565
31      427.461 2 3 0 100 0 519.235
32      427.461 2 3 0 100 0 549.779
33      427.461 2 3 0 100 0 581.195
34      427.461 2 3 0 100 0 613.483
35      427.461 2 3 0 100 0 646.644
36      427.461 2 3 0 100 0 680.678
37      427.461 2 3 0 100 0 715.585
38      427.461 2 3 0 100 0 751.364
39      427.461 2 3 0 100 0 788.016
40      427.461 2 3 0 100 0 825.541
41      427.461 2 3 0 100 0 863.938
42      427.461 2 3 0 100 0 903.208
43      427.461 2 3 0 100 0 943.35
44      427.461 2 3 0 100 0 984.366
45      427.461 2 3 0 100 0 1026.25
46      427.461 2 3 0 100 0 1069.01
47      427.461 2 3 0 100 0 1112.65
48      427.461 2 3 0 100 0 1157.15

# Format of arbitrary gradients:
#   time_shape_id of 0 means default timing (stepping with grad_raster starting at 1/2 of grad_raster)
# id amplitude amp_shape_id time_shape_id delay
# ..      Hz/m       ..         ..          us
[GRADIENTS]
1        42576 1 0 0
2        42576 1 0 494000
3      -176827 4 0 0
4      -277781 5 0 0
5 -1.13169e+06 6 0 0
6       687838 7 0 0
7       970023 8 0 0
8      -970023 9 0 0
9       970023 9 0 0
10       317463 10 0 21440
11      -970023 11 0 0
12      -132276 12 0 0
13       970023 13 0 0
14      -132276 14 0 0
15      -970023 13 0 0
16       970023 15 0 0
17     -26455.3 16 0 0
18  1.38675e+06 17 0 0
19      -353041 18 0 0
20      -344831 19 0 0
21       304236 20 0 21440
22      -330463 21 0 0
23       291008 22 0 21440
24      -316095 23 0 0
25       277781 24 0 21440
26      -301727 25 0 0
27       264553 26 0 21440
28      -287359 27 0 0
29       251325 28 0 21440
30      -272991 29 0 0
31       238098 30 0 21440
32      -258623 31 0 0
33       224870 32 0 21440
34      -244255 33 0 0
35       211642 34 0 21440
36      -229887 35 0 0
37       198415 36 0 21440
38      -215519 37 0 0
39       185187 38 0 21440
40      -201151 39 0 0
41       171959 34 0 21440
42      -186783 31 0 0
43       158732 40 0 21440
44      -172415 41 0 0
45       145504 42 0 21440
46      -158048 43 0 0
47       132276 44 0 21440
48      -143680 45 0 0
49       119049 46 0 21440
50      -129312 47 0 0
51       105821 48 0 21440
52      -114944 49 0 0
53      92593.5 50 0 21440
54      -100576 51 0 0
55      79365.8 52 0 21440
56     -86207.7 53 0 0
57      66138.2 54 0 21440
58     -71839.8 31 0 0
59      52910.6 55 0 21440
60     -57471.8 56 0 0
61      39682.9 57 0 21440
62     -43103.9 58 0 0
63      26455.3 59 0 21440
64     -28735.9 60 0 0
65      13227.6 61 0 21440
66       -14368 62 0 0
67     -13227.6 61 0 21440
68        14368 62 0 0
69     -26455.3 59 0 21440
70      28735.9 60 0 0
71     -39682.9 57 0 21440
72      43103.9 58 0 0
73     -52910.6 55 0 21440
74      57471.8 56 0 0
75     -66138.2 54 0 21440
76      71839.8 31 0 0
77     -79365.8 52 0 21440
78      86207.7 53 0 0
79     -92593.5 50 0 21440
80       100576 51 0 0
81      -105821 48 0 21440
82       114944 49 0 0
83      -119049 46 0 21440
84       129312 47 0 0
85      -132276 44 0 21440
86       143680 45 0 0
87      -145504 42 0 21440
88       158048 43 0 0
89      -158732 40 0 21440
90       172415 41 0 0
91      -171959 34 0 21440
92       186783 31 0 0
93      -185187 38 0 21440
94       201151 39 0 0
95      -198415 36 0 21440
96       215519 37 0 0
97      -211642 34 0 21440
98       229887 35 0 0
99      -224870 32 0 21440
100       244255 33 0 0
101      -238098 30 0 21440
102       258623 31 0 0
103      -251325 28 0 21440
104       272991 29 0 0
105      -264553 26 0 21440
106       287359 27 0 0
107      -277781 24 0 21440
108       301727 25 0 0
109      -291008 22 0 21440
110       316095 23 0 0
111      -304236 20 0 21440
112       330463 21 0 0

# Format of ADC events:
# id num dwell delay freq phase
# ..  ..    ns    us   Hz   rad
[ADC]
1 168 2900 32 -0 7.15585
2 168 2900 12 -0 7.15585
3 168 2900 32 -0 11.5846
4 168 2900 12 -0 11.5846
5 168 2900 32 -0 16.8861
6 168 2900 12 -0 16.8861
7 168 2900 32 -0 23.0602
8 168 2900 12 -0 23.0602
9 168 2900 32 -0 30.1069
10 168 2900 12 -0 30.1069
11 168 2900 32 -0 38.0264
12 168 2900 12 -0 38.0264
13 168 2900 32 -0 46.8185
14 168 2900 12 -0 46.8185
15 168 2900 32 -0 56.4832
16 168 2900 12 -0 56.4832
17 168 2900 32 -0 67.0206
18 168 2900 12 -0 67.0206
19 168 2900 32 -0 78.4307
20 168 2900 12 -0 78.4307
21 168 2900 32 -0 90.7135
22 168 2900 12 -0 90.7135
23 168 2900 32 -0 103.869
24 168 2900 12 -0 103.869
25 168 2900 32 -0 117.897
26 168 2900 12 -0 117.897
27 168 2900 32 -0 132.798
28 168 2900 12 -0 132.798
29 168 2900 32 -0 148.571
30 168 2900 12 -0 148.571
31 168 2900 32 -0 165.217
32 168 2900 12 -0 165.217
33 168 2900 32 -0 182.736
34 168 2900 12 -0 182.736
35 168 2900 32 -0 201.127
36 168 2900 12 -0 201.127
37 168 2900 32 -0 220.391
38 168 2900 12 -0 220.391
39 168 2900 32 -0 240.528
40 168 2900 12 -0 240.528
41 168 2900 32 -0 261.538
42 168 2900 12 -0 261.538
43 168 2900 32 -0 283.42
44 168 2900 12 -0 283.42
45 168 2900 32 -0 306.174
46 168 2900 12 -0 306.174
47 168 2900 32 -0 329.802
48 168 2900 12 -0 329.802
49 168 2900 32 -0 354.302
50 168 2900 12 -0 354.302
51 168 2900 32 -0 379.675
52 168 2900 12 -0 379.675
53 168 2900 32 -0 405.92
54 168 2900 12 -0 405.92
55 168 2900 32 -0 433.038
56 168 2900 12 -0 433.038
57 168 2900 32 -0 461.029
58 168 2900 12 -0 461.029
59 168 2900 32 -0 489.892
60 168 2900 12 -0 489.892
61 168 2900 32 -0 519.628
62 168 2900 12 -0 519.628
63 168 2900 32 -0 550.237
64 168 2900 12 -0 550.237
65 168 2900 32 -0 581.718
66 168 2900 12 -0 581.718
67 168 2900 32 -0 614.072
68 168 2900 12 -0 614.072
69 168 2900 32 -0 647.299
70 168 2900 12 -0 647.299
71 168 2900 32 -0 681.398
72 168 2900 12 -0 681.398
73 168 2900 32 -0 716.37
74 168 2900 12 -0 716.37
75 168 2900 32 -0 752.215
76 168 2900 12 -0 752.215
77 168 2900 32 -0 788.932
78 168 2900 12 -0 788.932
79 168 2900 32 -0 826.522
80 168 2900 12 -0 826.522
81 168 2900 32 -0 864.985
82 168 2900 12 -0 864.985
83 168 2900 32 -0 904.321
84 168 2900 12 -0 904.321
85 168 2900 32 -0 944.529
86 168 2900 12 -0 944.529
87 168 2900 32 -0 985.609
88 168 2900 12 -0 985.609
89 168 2900 32 -0 1027.56
90 168 2900 12 -0 1027.56
91 168 2900 32 -0 1070.39
92 168 2900 12 -0 1070.39
93 168 2900 32 -0 1114.09
94 168 2900 12 -0 1114.09
95 168 2900 32 -0 1158.66
96 168 2900 12 -0 1158.66

# Format of extension lists:
# id type ref next_id
# next_id of 0 terminates the list
# Extension list is followed by extension specifications
[EXTENSIONS]
1 1 1 0

# Extension specification for digital output and input triggers:
# id type channel delay (us) duration (us)
extension TRIGGERS 1
1 1 3 0 200

# Sequence Shapes
[SHAPES]

shape_id 1
num_samples 600
0.004999
0.01
0.01
97
0.005001
0
0
397
-0.005
-0.01
-0.01
97

shape_id 2
num_samples 200
0
0
8
0.0005233
0
-0.0005233
0
0
0
0.0005233
0.0005233
1
-0.0005233
-0.0005233
1
0.0010466
0.0010465
0.0010466
0
-0.0005233
-0.0015698
-0.0005233
0.0026164
0.0020932
0.0005232
0
-0.0020931
-0.0031397
0.0020931
0.003663
0.0026165
0.0010465
-0.0015698
-0.003663
-0.003663
0
0.0052328
0.0047096
0.0031397
0
-0.003663
-0.0062794
-0.0010466
0.0083726
0.0068027
0.0026164
-0.0015698
-0.0068027
-0.0099425
0.0062795
0.010989
0.007326
0.0020931
-0.0047095
-0.0109891
-0.0120355
0.0162218
0.0141288
0.0078493
-0.0005233
-0.0099425
-0.0172684
-0.0026164
0.0225013
0.0167451
0.007326
-0.0047095
-0.0172685
-0.0272109
0.0172685
0.029304
0.0204082
0.0052328
-0.0120356
-0.0298273
-0.032967
0.0465725
0.040293
0.0251177
0.0010466
-0.0266876
-0.0523286
-0.0062794
0.0753532
0.0648875
0.03663
-0.0057561
-0.0580848
-0.1119833
0.0926217
0.1925693
0.204605
0.1925693
0.1559393
0.0989011
0.0298273
-0.043956
-0.1119833
-0.1653584
-0.1967557
-0.2040816
-0.1873365
-0.0308739
0.1015176
0.0470957
-0.003663
-0.043956
-0.0680272
-0.0758765
0.0334903
0.047619
0.0209315
-0.0062795
-0.0282574
-0.0429095
-0.0371533
0.040293
0.0261643
0.0088959
-0.0088959
-0.0225013
-0.0303506
-0.0047095
0.0251177
0.0151753
0.0020931
-0.0094191
-0.018315
-0.0225013
0.010989
0.0162218
0.0078493
-0.0015698
-0.0094192
-0.014652
-0.0130821
0.014652
0.0099424
0.0031397
-0.0031397
-0.0083726
-0.0115123
-0.0015698
0.0094191
0.0057562
0.0010465
-0.003663
-0.007326
-0.0083725
0.0041862
0.0057562
0.0031397
-0.0010466
-0.0031397
-0.0052328
-0.0052329
0.0052329
0.003663
0.0010465
-0.0015698
-0.0026165
-0.003663
-0.0010465
0.0031397
0.0015698
0
-0.0010465
-0.0020932
-0.0026164
0.0010466
0.0010465
0.0010466
0
-0.0010466
-0.0010465
-0.0010466
0.0010466
0.0005233
0
-0.0005233
-0.0005233
1
0
0
0
0.0005233
-0.0005233
0
0
7

shape_id 3
num_samples 200
0
0
6
0.5
0
0
3
-0.5
0
0
3
0.5
0
0
4
-0.5
0
0
4
0.5
0
0
3
-0.5
0
0
4
0.5
0
0
4
-0.5
0
0
3
0.5
0
0
4
-0.5
0
0
4
0.5
0
0
3
-0.5
0
0
4
0.5
0
0
4
-0.5
0
0
10
0.5
0
0
4
-0.5
0
0
3
0.5
0
0
4
-0.5
0
0
4
0.5
0
0
3
-0.5
0
0
4
0.5
0
0
4
-0.5
0
0
3
0.5
0
0
4
-0.5
0
0
4
0.5
0
0
3
-0.5
0
0
4
0.5
0
0
3
-0.5
0
0
4

shape_id 4
num_samples 114
0
0
109
0.2
0.4000001
0.3999999

shape_id 5
num_samples 114
0.05
0.0999999
0.0999999
0
0.1000002
0.1
0.0999999
0.0999999
0
0.1000002
0.1
0.0999999
0.0500001
0
0
97
-0.125
-0.2499999
-0.25
-0.25
0

shape_id 6
num_samples 31
0.21875
0.0625
0.0625
10
0.03125
0
-0.0312499
-0.0625
-0.0625
3
-0.0625001
-0.0625
-0.0625
0
-0.0624999
-0.0625001
-0.0625
-0.0624999
-0.0625001
-0.0625
-0.0624999

shape_id 7
num_samples 31
0.05
0.1
0.1
0
0.0999999
0.1
0.1
2
0.1000001
0.0999999
0.0500001
0
0
8
-0.0500001
-0.0999999
-0.1
-0.1
2
-0.0999999
-0.1000001
-0.1
-0.1
0

shape_id 8
num_samples 55
0.0384615
0.0769231
0.0769231
1
0.076923
0.0769231
0.0769231
2
0.076923
0.0769231
0.0769231
1
0.0384615
0
0
26
-0.0384615
-0.0769231
-0.076923
-0.0769231
-0.0769231
2
-0.076923
-0.0769231
-0.0769231
1
-0.076923
-0.0769231

shape_id 9
num_samples 55
0.0384615
0.0769231
0.076923
0.0769231
0.0769231
2
0.076923
0.0769231
0.0769231
1
0.076923
0.0769231
0.0384616
0
0
26
-0.0384615
-0.0769231
-0.076923
-0.0769231
-0.0769231
2
-0.076923
-0.0769231
-0.0769231
1
-0.076923
-0.0769231

shape_id 10
num_samples 68
0.0999999
0.2
0.2
2
0.1000001
0
0
55
-0.1000001
-0.2
-0.2
2

shape_id 11
num_samples 57
0.0384615
0.0769231
0.0769231
1
0.076923
0.0769231
0.0769231
2
0.076923
0.0769231
0.0769231
1
0.0384615
0
0
26
-0.0384615
-0.0769231
-0.076923
-0.0769231
-0.0769231
2
-0.076923
-0.0769231
-0.0769231
1
-0.076923
-0.0769231
-0.0769231
1

shape_id 12
num_samples 57
0
0
50
0.1999999
0.3999999
0.3999999
0
3e-07
-0.4000002

shape_id 13
num_samples 55
0.1923076
0.0769231
0.0769231
2
0.076923
0.0769231
0.0769231
1
0.076923
0.0769231
0.0384616
0
0
26
-0.0384615
-0.0769231
-0.076923
-0.0769231
-0.0769231
2
-0.076923
-0.0769231
-0.0769231
1
-0.076923
-0.0769231
-0.0769231
1

shape_id 14
num_samples 55
0.1999999
-0.1999999
0
0
46
0.1999999
0.3999999
0.3999999
0
3e-07
-0.4000002

shape_id 15
num_samples 53
0.1923076
0.0769231
0.0769231
2
0.076923
0.0769231
0.0769231
1
0.076923
0.0769231
0.0384616
0
0
26
-0.0384615
-0.0769231
-0.076923
-0.0769231
-0.0769231
2
-0.076923
-0.0769231
-0.0769231
1
-0.076923
-0.0769231

shape_id 16
num_samples 1
1

shape_id 17
num_samples 63
0.025
0.05
0.05
17
0.025
0
0
20
-0.0250001
-0.05
-0.05
4
-0.0499999
-0.05
-0.05
10

shape_id 18
num_samples 63
0.0999999
0.2
0.2
2
0.1000001
0
0
50
-0.0999999
-0.2
-0.2
2

shape_id 19
num_samples 63
0.0999999
0.2000001
0.2000001
0
0.1999999
0.2
0.1
0
0
50
-0.1
-0.2
-0.1999999
-0.2
-0.2000002

shape_id 20
num_samples 68
0.1
0.1999999
0.2
0.1999999
0.2000002
0.1
0
0
55
-0.1000001
-0.2
-0.1999999
-0.1999999
0
-0.2000003

shape_id 21
num_samples 63
0.1
0.2
0.1999999
0.2
0.2
0
0.1000001
0
0
50
-0.1
-0.2
-0.1999999
-0.2
-0.2
0

shape_id 22
num_samples 68
0.0999999
0.2
0.2
0
0.2000001
0.2
0.1
0
0
55
-0.1000002
-0.1999998
-0.1999999
-0.2000002
-0.2

shape_id 23
num_samples 63
0.0999999
0.2
0.2
2
0.1000001
0
0
50
-0.1000001
-0.2
-0.2
2

shape_id 24
num_samples 68
0.0999999
0.2
0.2
2
0.1000001
0
0
55
-0.0999999
-0.2
-0.2
2

shape_id 25
num_samples 63
0.0999999
0.2
0.2
0
0.2000001
0.2
0.1
0
0
50
-0.1
-0.2
-0.2000001
-0.2
-0.2
0

shape_id 26
num_samples 68
0.1
0.1999999
0.1999999
0
0.2
0.2000002
0.1
0
0
55
-0.1
-0.1999999
-0.1999999
0
-0.2
-0.2000002

shape_id 27
num_samples 63
0.1
0.2
0.1999999
0.1999999
0
0.2000002
0.1
0
0
50
-0.1000001
-0.1999999
-0.1999999
0
-0.2000002
-0.1999999

shape_id 28
num_samples 68
0.0999998
0.2000001
0.2
0.2
0
0.2000001
0.1
0
0
55
-0.1
-0.2000001
-0.2
-0.1999998
-0.1999999

shape_id 29
num_samples 63
0.0999999
0.2000001
0.1999999
0.2
0.1999999
0.1000002
0
0
50
-0.1
-0.2000001
-0.2
-0.1999999
-0.2

shape_id 30
num_samples 68
0.0999999
0.2000001
0.2
0.2
0
0.1999999
0.1000001
0
0
55
-0.1000001
-0.1999999
-0.2
-0.2
0
-0.1999999

shape_id 31
num_samples 63
0.1
0.2
0.2
2
0.1
0
0
50
-0.1
-0.2
-0.2
2

shape_id 32
num_samples 68
0.0999999
0.2000001
0.1999999
0.1999999
0
0.2000003
0.0999999
0
0
55
-0.1000001
-0.1999999
-0.1999999
0
-0.2000003
-0.1999999

shape_id 33
num_samples 63
0.0999999
0.2000001
0.2
0.2
0
0.2000001
0.0999999
0
0
50
-0.0999999
-0.2000001
-0.2
-0.2
0
-0.2000001

shape_id 34
num_samples 68
0.1
0.2
0.2
2
0.1
0
0
55
-0.1
-0.2
-0.2
2

shape_id 35
num_samples 63
0.0999999
0.2
0.2000001
0.1999999
0.1999999
0
0.1000002
0
0
50
-0.1
-0.1999999
-0.1999999
0
-0.2000003
-0.1999999

shape_id 36
num_samples 68
0.0999999
0.2000001
0.2
0.2
0
0.1999999
0.1000001
0
0
55
-0.0999999
-0.1999999
-0.2
-0.1999999
-0.2000004

shape_id 37
num_samples 63
0.1
0.1999999
0.1999999
1
0.2000003
0.1
0
0
50
-0.1
-0.2000001
-0.1999999
-0.1999999
1

shape_id 38
num_samples 68
0.0999999
0.2000001
0.2
0.1999998
0.1999998
0
0.1000004
0
0
55
-0.1000001
-0.2000001
-0.2
-0.1999998
-0.1999999

shape_id 39
num_samples 63
0.0999999
0.1999999
0.2
0.1999999
0.2
0.1000003
0
0
50
-0.1000001
-0.1999999
-0.2
-0.2
0
-0.1999999

shape_id 40
num_samples 68
0.0999998
0.2000002
0.1999999
0.1999999
1
0.1000003
0
0
55
-0.1000001
-0.1999999
-0.1999999
1
-0.2000004

shape_id 41
num_samples 63
0.0999999
0.2000001
0.2000001
0
0.1999999
0.1999998
0.1000002
0
0
50
-0.0999999
-0.2000001
-0.2000001
0
-0.1999999
-0.1999998

shape_id 42
num_samples 68
0.0999999
0.2
0.2000001
0.2000001
0
0.2
0.0999999
0
0
55
-0.1000002
-0.1999997
-0.1999998
-0.2000004
-0.2

shape_id 43
num_samples 63
0.0999998
0.2000002
0.1999999
0.1999999
0
0.2000004
0.0999998
0
0
50
-0.1000001
-0.1999999
-0.1999999
1
-0.2000004

shape_id 44
num_samples 68
0.1
0.1999999
0.1999999
0
0.2
0.1999999
0.1000003
0
0
55
-0.1
-0.1999999
-0.1999999
0
-0.2
-0.1999999

shape_id 45
num_samples 63
0.1
0.1999999
0.2
0.1999999
0.1999999
0
0.1000003
0
0
50
-0.1
-0.1999999
-0.2
-0.1999999
-0.1999999
0

shape_id 46
num_samples 68
0.0999997
0.2000002
0.2000001
0.1999998
0.1999998
0
0.1000004
0
0
55
-0.1000001
-0.2000001
-0.1999998
-0.1999998
0
-0.2000005

shape_id 47
num_samples 63
0.0999998
0.2
0.2
2
0.1000002
0
0
50
-0.1000002
-0.2
-0.2
2

shape_id 48
num_samples 68
0.0999998
0.2
0.2
2
0.1000002
0
0
55
-0.1000002
-0.2
-0.2
2

shape_id 49
num_samples 63
0.0999997
0.2
0.2000001
0.2000001
1
0.1
0
0
50
-0.1
-0.2000001
-0.2000001
1
-0.1999997

shape_id 50
num_samples 68
0.0999999
0.1999998
0.1999998
0
0.1999999
0.1999998
0.1000008
0
0
55
-0.1000004
-0.1999998
-0.1999998
2

shape_id 51
num_samples 63
0.0999999
0.1999997
0.1999998
0.2000006
0.1999997
0.1000003
0
0
50
-0.1000003
-0.1999997
-0.1999998
-0.2000006
-0.1999997

shape_id 52
num_samples 68
0.0999996
0.2000002
0.2000002
1
0.1999997
0.1000001
0
0
55
-0.1000001
-0.1999997
-0.1999997
0
-0.2000007
-0.2000002

shape_id 53
num_samples 63
0.0999997
0.2000004
0.1999999
0.1999999
1
0.1000002
0
0
50
-0.0999997
-0.2000004
-0.1999999
-0.1999999
1

shape_id 54
num_samples 68
0.0999997
0.2
0.2
2
0.1000003
0
0
55
-0.0999997
-0.2
-0.2
2

shape_id 55
num_samples 68
0.0999998
0.1999997
0.1999997
1
0.2000013
0.0999998
0
0
55
-0.0999998
-0.2000005
-0.1999997
-0.1999997
1

shape_id 56
num_samples 63
0.0999997
0.2000002
0.2000001
0.2000001
0
0.2000002
0.0999997
0
0
50
-0.0999997
-0.2000002
-0.2000001
-0.2000001
0
-0.2000002

shape_id 57
num_samples 68
0.099999
0.2000002
0.2000003
0.2000002
0.2000002
0
0.1000001
0
0
55
-0.1000001
-0.2000002
-0.2000002
0
-0.2000003
-0.2000002

shape_id 58
num_samples 63
0.0999992
0.2000004
0.2000004
0
0.1999994
0.1999994
0
0.1000012
0
0
50
-0.1000002
-0.2000004
-0.1999994
-0.1999994
0
-0.2000014

shape_id 59
num_samples 68
0.099999
0.1999997
0.1999997
1
0.1999996
0.1000023
0
0
55
-0.1000006
-0.1999997
-0.1999997
2

shape_id 60
num_samples 63
0.0999997
0.1999994
0.1999994
1
0.2000024
0.0999997
0
0
50
-0.0999997
-0.2000009
-0.1999994
-0.1999994
1

shape_id 61
num_samples 68
0.099999
0.1999981
0.1999981
0
0.2000045
0.199998
0.1000023
0
0
55
-0.1000023
-0.199998
-0.1999981
-0.2000045
-0.1999981

shape_id 62
num_samples 63
0.0999982
0.1999994
0.1999994
1
0.1999995
0.1000041
0
0
50
-0.1000012
-0.1999994
-0.1999994
2


[SIGNATURE]
# This is the hash of the Pulseq file, calculated right before the [SIGNATURE] section was added
# It can be reproduced/verified with md5sum if the file trimmed to the position right above [SIGNATURE]
# The new line character preceding [SIGNATURE] BELONGS to the signature (and needs to be stripped away for recalculating/verification)
Type md5
Hash 15eb20bf68459684978d86d21b916b4c
