# Pulseq sequence file
# Created by PyPulseq

[VERSION]
major 1
minor 3
revision 1post1

[DEFINITIONS]
Name test/test_data/gre.seq 

# Format of blocks:
#  #  D RF  GX  GY  GZ ADC EXT
[BLOCKS]
  1  1  0   1   1   1  0  0
  2  1  0   1   1   1  0  0
  3  1  0   1   1   1  0  0
  4  2  1   0   0   2  0  1
  5  3  0   5   4   3  1  0
  6  2  2   0   0   2  0  1
  7  3  0   5   6   3  2  0
  8  2  3   0   0   2  0  1
  9  3  0   5   7   3  3  0
 10  2  4   0   0   2  0  1
 11  3  0   5   8   3  4  0
 12  2  5   0   0   2  0  1
 13  3  0   5   9   3  5  0
 14  2  6   0   0   2  0  1
 15  3  0   5  10   3  6  0
 16  2  7   0   0   2  0  1
 17  3  0   5  11   3  7  0
 18  2  8   0   0   2  0  1
 19  3  0   5  12   3  8  0
 20  2  9   0   0   2  0  1
 21  3  0   5  13   3  9  0
 22  2 10   0   0   2  0  1
 23  3  0   5  14   3 10  0
 24  2 11   0   0   2  0  1
 25  3  0   5  15   3 11  0
 26  2 12   0   0   2  0  1
 27  3  0   5  16   3 12  0
 28  2 13   0   0   2  0  1
 29  3  0   5  17   3 13  0
 30  2 14   0   0   2  0  1
 31  3  0   5  18   3 14  0
 32  2 15   0   0   2  0  1
 33  3  0   5  19   3 15  0
 34  2 16   0   0   2  0  1
 35  3  0   5  20   3 16  0
 36  2 17   0   0   2  0  1
 37  3  0   5  21   3 17  0
 38  2 18   0   0   2  0  1
 39  3  0   5  22   3 18  0
 40  2 19   0   0   2  0  1
 41  3  0   5  23   3 19  0
 42  2 20   0   0   2  0  1
 43  3  0   5  24   3 20  0
 44  2 21   0   0   2  0  1
 45  3  0   5  25   3 21  0
 46  2 22   0   0   2  0  1
 47  3  0   5  26   3 22  0
 48  2 23   0   0   2  0  1
 49  3  0   5  27   3 23  0
 50  2 24   0   0   2  0  1
 51  3  0   5  28   3 24  0
 52  2 25   0   0   2  0  1
 53  3  0   5  29   3 25  0
 54  2 26   0   0   2  0  1
 55  3  0   5  30   3 26  0
 56  2 27   0   0   2  0  1
 57  3  0   5  31   3 27  0
 58  2 28   0   0   2  0  1
 59  3  0   5  32   3 28  0
 60  2 29   0   0   2  0  1
 61  3  0   5  33   3 29  0
 62  2 30   0   0   2  0  1
 63  3  0   5  34   3 30  0
 64  2 31   0   0   2  0  1
 65  3  0   5  35   3 31  0
 66  2 32   0   0   2  0  1
 67  3  0   5  36   3 32  0
 68  2 33   0   0   2  0  1
 69  3  0   5  37   3 33  0
 70  2 34   0   0   2  0  1
 71  3  0   5  38   3 34  0
 72  2 35   0   0   2  0  1
 73  3  0   5  39   3 35  0
 74  2 36   0   0   2  0  1
 75  3  0   5  40   3 36  0
 76  2 37   0   0   2  0  1
 77  3  0   5  41   3 37  0
 78  2 38   0   0   2  0  1
 79  3  0   5  42   3 38  0
 80  2 39   0   0   2  0  1
 81  3  0   5  43   3 39  0
 82  2 40   0   0   2  0  1
 83  3  0   5  44   3 40  0
 84  2 41   0   0   2  0  1
 85  3  0   5  45   3 41  0
 86  2 42   0   0   2  0  1
 87  3  0   5  46   3 42  0
 88  2 43   0   0   2  0  1
 89  3  0   5  47   3 43  0
 90  2 44   0   0   2  0  1
 91  3  0   5  48   3 44  0
 92  2 45   0   0   2  0  1
 93  3  0   5  49   3 45  0
 94  2 46   0   0   2  0  1
 95  3  0   5  50   3 46  0
 96  2 47   0   0   2  0  1
 97  3  0   5  51   3 47  0
 98  2 48   0   0   2  0  1
 99  3  0   5  52   3 48  0
100  2 49   0   0   2  0  1
101  3  0   5  53   3 49  0
102  2 50   0   0   2  0  1
103  3  0   5  54   3 50  0
104  2 51   0   0   2  0  1
105  3  0   5  55   3 51  0
106  2 52   0   0   2  0  1
107  3  0   5  56   3 52  0
108  2 53   0   0   2  0  1
109  3  0   5  57   3 53  0
110  2 54   0   0   2  0  1
111  3  0   5  58   3 54  0
112  2 55   0   0   2  0  1
113  3  0   5  59   3 55  0
114  2 56   0   0   2  0  1
115  3  0   5  60   3 56  0
116  2 57   0   0   2  0  1
117  3  0   5  61   3 57  0
118  2 58   0   0   2  0  1
119  3  0   5  62   3 58  0
120  2 59   0   0   2  0  1
121  3  0   5  63   3 59  0
122  2 60   0   0   2  0  1
123  3  0   5  64   3 60  0
124  2 61   0   0   2  0  1
125  3  0   5  65   3 61  0
126  2 62   0   0   2  0  1
127  3  0   5  66   3 62  0
128  2 63   0   0   2  0  1
129  3  0   5  67   3 63  0
130  2 64   0   0   2  0  1
131  3  0   5  68   3 64  0
132  2 65   0   0   2  0  1
133  3  0   5  69   3 65  0
134  2 66   0   0   2  0  1
135  3  0   5  70   3 66  0
136  2 67   0   0   2  0  1
137  3  0   5  71   3 67  0
138  2 68   0   0   2  0  1
139  3  0   5  72   3 68  0
140  2 69   0   0   2  0  1
141  3  0   5  73   3 69  0
142  2 70   0   0   2  0  1
143  3  0   5  74   3 70  0
144  2 71   0   0   2  0  1
145  3  0   5  75   3 71  0
146  2 72   0   0   2  0  1
147  3  0   5  76   3 72  0
148  2 73   0   0   2  0  1
149  3  0   5  77   3 73  0
150  2 74   0   0   2  0  1
151  3  0   5  78   3 74  0
152  2 75   0   0   2  0  1
153  3  0   5  79   3 75  0
154  2 76   0   0   2  0  1
155  3  0   5  80   3 76  0
156  2 77   0   0   2  0  1
157  3  0   5  81   3 77  0
158  2 78   0   0   2  0  1
159  3  0   5  82   3 78  0
160  2 79   0   0   2  0  1
161  3  0   5  83   3 79  0
162  2 80   0   0   2  0  1
163  3  0   5  84   3 80  0
164  2 81   0   0   2  0  1
165  3  0   5  85   3 81  0
166  2 82   0   0   2  0  1
167  3  0   5  86   3 82  0
168  2 83   0   0   2  0  1
169  3  0   5  87   3 83  0
170  2 84   0   0   2  0  1
171  3  0   5  88   3 84  0
172  2 85   0   0   2  0  1
173  3  0   5  89   3 85  0
174  2 86   0   0   2  0  1
175  3  0   5  90   3 86  0
176  2 87   0   0   2  0  1
177  3  0   5  91   3 87  0
178  2 88   0   0   2  0  1
179  3  0   5  92   3 88  0
180  2 89   0   0   2  0  1
181  3  0   5  93   3 89  0
182  2 90   0   0   2  0  1
183  3  0   5  94   3 90  0
184  2 91   0   0   2  0  1
185  3  0   5  95   3 91  0
186  2 92   0   0   2  0  1
187  3  0   5  96   3 92  0
188  2 93   0   0   2  0  1
189  3  0   5  97   3 93  0
190  2 94   0   0   2  0  1
191  3  0   5  98   3 94  0
192  2 95   0   0   2  0  1
193  3  0   5  99   3 95  0
194  2 96   0   0   2  0  1
195  3  0   5 100   3 96  0
196  2 97   0   0   2  0  1
197  3  0   5 101   3 97  0
198  2 98   0   0   2  0  1
199  3  0   5 102   3 98  0
200  2 99   0   0   2  0  1
201  3  0   5 103   3 99  0
202  2 100   0   0   2  0  1
203  3  0   5 104   3 100  0
204  2 101   0   0   2  0  1
205  3  0   5 105   3 101  0
206  2 102   0   0   2  0  1
207  3  0   5 106   3 102  0
208  2 103   0   0   2  0  1
209  3  0   5 107   3 103  0
210  2 104   0   0   2  0  1
211  3  0   5 108   3 104  0
212  2 105   0   0   2  0  1
213  3  0   5 109   3 105  0
214  2 106   0   0   2  0  1
215  3  0   5 110   3 106  0
216  2 107   0   0   2  0  1
217  3  0   5 111   3 107  0
218  2 108   0   0   2  0  1
219  3  0   5 112   3 108  0
220  2 109   0   0   2  0  1
221  3  0   5 113   3 109  0
222  2 110   0   0   2  0  1
223  3  0   5 114   3 110  0
224  2 111   0   0   2  0  1
225  3  0   5 115   3 111  0
226  2 112   0   0   2  0  1
227  3  0   5 116   3 112  0
228  2 113   0   0   2  0  1
229  3  0   5 117   3 113  0
230  2 114   0   0   2  0  1
231  3  0   5 118   3 114  0
232  2 115   0   0   2  0  1
233  3  0   5 119   3 115  0
234  2 116   0   0   2  0  1
235  3  0   5 120   3 116  0
236  2 117   0   0   2  0  1
237  3  0   5 121   3 117  0
238  2 118   0   0   2  0  1
239  3  0   5 122   3 118  0
240  2 119   0   0   2  0  1
241  3  0   5 123   3 119  0
242  2 120   0   0   2  0  1
243  3  0   5 124   3 120  0
244  2 121   0   0   2  0  1
245  3  0   5 125   3 121  0
246  2 122   0   0   2  0  1
247  3  0   5 126   3 122  0
248  2 123   0   0   2  0  1
249  3  0   5 127   3 123  0
250  2 124   0   0   2  0  1
251  3  0   5 128   3 124  0
252  2 50   0   0   2  0  1
253  3  0   5 129   3 50  0
254  2 125   0   0   2  0  1
255  3  0   5 130   3 125  0
256  2 126   0   0   2  0  1
257  3  0   5 131   3 126  0
258  2 127   0   0   2  0  1
259  3  0   5 132   3 127  0

# Format of RF events:
# id amplitude mag_id phase_id delay freq phase
# ..        Hz   ....     ....    us   Hz   rad
[RF]
1      99.0921 1 2 100 0 39.2699
2      99.0921 1 2 100 0 47.9966
3      99.0921 1 2 100 0 57.5959
4      99.0921 1 2 100 0 68.0678
5      99.0921 1 2 100 0 79.4125
6      99.0921 1 2 100 0 91.6298
7      99.0921 1 2 100 0 104.72
8      99.0921 1 2 100 0 118.682
9      99.0921 1 2 100 0 133.518
10      99.0921 1 2 100 0 149.226
11      99.0921 1 2 100 0 165.806
12      99.0921 1 2 100 0 183.26
13      99.0921 1 2 100 0 201.586
14      99.0921 1 2 100 0 220.784
15      99.0921 1 2 100 0 240.855
16      99.0921 1 2 100 0 261.799
17      99.0921 1 2 100 0 283.616
18      99.0921 1 2 100 0 306.305
19      99.0921 1 2 100 0 329.867
20      99.0921 1 2 100 0 354.302
21      99.0921 1 2 100 0 379.609
22      99.0921 1 2 100 0 405.789
23      99.0921 1 2 100 0 432.842
24      99.0921 1 2 100 0 460.767
25      99.0921 1 2 100 0 489.565
26      99.0921 1 2 100 0 519.235
27      99.0921 1 2 100 0 549.779
28      99.0921 1 2 100 0 581.195
29      99.0921 1 2 100 0 613.483
30      99.0921 1 2 100 0 646.644
31      99.0921 1 2 100 0 680.678
32      99.0921 1 2 100 0 715.585
33      99.0921 1 2 100 0 751.364
34      99.0921 1 2 100 0 788.016
35      99.0921 1 2 100 0 825.541
36      99.0921 1 2 100 0 863.938
37      99.0921 1 2 100 0 903.208
38      99.0921 1 2 100 0 943.35
39      99.0921 1 2 100 0 984.366
40      99.0921 1 2 100 0 1026.25
41      99.0921 1 2 100 0 1069.01
42      99.0921 1 2 100 0 1112.65
43      99.0921 1 2 100 0 1157.15
44      99.0921 1 2 100 0 1202.53
45      99.0921 1 2 100 0 1248.78
46      99.0921 1 2 100 0 1295.91
47      99.0921 1 2 100 0 1343.9
48      99.0921 1 2 100 0 1392.77
49      99.0921 1 2 100 0 1442.51
50      99.0921 1 2 100 0 1493.13
51      99.0921 1 2 100 0 1544.62
52      99.0921 1 2 100 0 1596.98
53      99.0921 1 2 100 0 1650.21
54      99.0921 1 2 100 0 1704.31
55      99.0921 1 2 100 0 1759.29
56      99.0921 1 2 100 0 1815.14
57      99.0921 1 2 100 0 1871.87
58      99.0921 1 2 100 0 1929.46
59      99.0921 1 2 100 0 1987.93
60      99.0921 1 2 100 0 2047.27
61      99.0921 1 2 100 0 2107.49
62      99.0921 1 2 100 0 2168.57
63      99.0921 1 2 100 0 2230.53
64      99.0921 1 2 100 0 2293.36
65      99.0921 1 2 100 0 2357.07
66      99.0921 1 2 100 0 2421.64
67      99.0921 1 2 100 0 2487.09
68      99.0921 1 2 100 0 2553.42
69      99.0921 1 2 100 0 2620.61
70      99.0921 1 2 100 0 2688.68
71      99.0921 1 2 100 0 2757.62
72      99.0921 1 2 100 0 2827.43
73      99.0921 1 2 100 0 2898.12
74      99.0921 1 2 100 0 2969.68
75      99.0921 1 2 100 0 3042.11
76      99.0921 1 2 100 0 3115.41
77      99.0921 1 2 100 0 3189.59
78      99.0921 1 2 100 0 3264.64
79      99.0921 1 2 100 0 3340.56
80      99.0921 1 2 100 0 3417.35
81      99.0921 1 2 100 0 3495.02
82      99.0921 1 2 100 0 3573.56
83      99.0921 1 2 100 0 3652.97
84      99.0921 1 2 100 0 3733.26
85      99.0921 1 2 100 0 3814.42
86      99.0921 1 2 100 0 3896.45
87      99.0921 1 2 100 0 3979.35
88      99.0921 1 2 100 0 4063.13
89      99.0921 1 2 100 0 4147.77
90      99.0921 1 2 100 0 4233.3
91      99.0921 1 2 100 0 4319.69
92      99.0921 1 2 100 0 4406.96
93      99.0921 1 2 100 0 4495.1
94      99.0921 1 2 100 0 4584.11
95      99.0921 1 2 100 0 4673.99
96      99.0921 1 2 100 0 4764.75
97      99.0921 1 2 100 0 4856.38
98      99.0921 1 2 100 0 4948.88
99      99.0921 1 2 100 0 5042.26
100      99.0921 1 2 100 0 5136.5
101      99.0921 1 2 100 0 5231.62
102      99.0921 1 2 100 0 5327.62
103      99.0921 1 2 100 0 5424.48
104      99.0921 1 2 100 0 5522.22
105      99.0921 1 2 100 0 5620.83
106      99.0921 1 2 100 0 5720.32
107      99.0921 1 2 100 0 5820.67
108      99.0921 1 2 100 0 5921.9
109      99.0921 1 2 100 0 6024
110      99.0921 1 2 100 0 6126.98
111      99.0921 1 2 100 0 6230.83
112      99.0921 1 2 100 0 52.3599
113      99.0921 1 2 100 0 157.952
114      99.0921 1 2 100 0 264.417
115      99.0921 1 2 100 0 371.755
116      99.0921 1 2 100 0 479.966
117      99.0921 1 2 100 0 589.049
118      99.0921 1 2 100 0 699.004
119      99.0921 1 2 100 0 809.833
120      99.0921 1 2 100 0 921.534
121      99.0921 1 2 100 0 1034.11
122      99.0921 1 2 100 0 1147.55
123      99.0921 1 2 100 0 1261.87
124      99.0921 1 2 100 0 1377.06
125      99.0921 1 2 100 0 1610.07
126      99.0921 1 2 100 0 1727.88
127      99.0921 1 2 100 0 1846.56

# Format of arbitrary gradients:
# id amplitude shape_id delay
# ..      Hz/m     ....    us
[GRADIENTS]
4       592658 3 6490
5  1.78819e+06 4 6490
6       583291 5 6490
7       573924 6 6490
8       564984 7 6490
9       555617 8 6490
10       546250 9 6490
11       536883 10 6490
12       527942 11 6490
13       518576 12 6490
14       509209 13 6490
15       499842 14 6490
16       490901 15 6490
17       481535 16 6490
18       472168 17 6490
19       462801 18 6490
20       453860 19 6490
21       444493 20 6490
22       435127 21 6490
23       425760 22 6490
24       416819 23 6490
25       407452 24 6490
26       398086 25 6490
27       388719 26 6490
28       379778 27 6490
29       370411 8 6490
30       361044 28 6490
31       351678 29 6490
32       342737 30 6490
33       333370 31 6490
34       324003 32 6490
35       314637 33 6490
36       305696 34 6490
37       296329 3 6490
38       286962 6 6490
39       277596 35 6490
40       268655 36 6490
41       259288 12 6490
42       249921 37 6490
43       240554 38 6490
44       231613 39 6490
45       222247 40 6490
46       212880 22 6490
47       203513 41 6490
48       194572 42 6490
49       185206 8 6490
50       175839 43 6490
51       166472 39 6490
52       157531 44 6490
53       148164 45 6490
54       138798 46 6490
55       129431 47 6490
56       120490 48 6490
57       111123 40 6490
58       101757 41 6490
59      92389.9 49 6490
60        83449 50 6490
61      74082.2 51 6490
62      64715.5 52 6490
63      55348.8 53 6490
64      46407.8 54 6490
65      37041.1 55 6490
66      27674.4 56 6490
67      18307.7 57 6490
68      9366.72 58 6490
69      0.00436 59 6490
70      9366.72 60 6490
71      18307.7 61 6490
72      27674.4 62 6490
73      37041.1 63 6490
74      46407.8 64 6490
75      55348.8 65 6490
76      64715.5 66 6490
77      74082.2 67 6490
78        83449 68 6490
79      92389.9 69 6490
80       101757 70 6490
81       111123 71 6490
82       120490 72 6490
83       129431 73 6490
84       138798 74 6490
85       148164 75 6490
86       157531 76 6490
87       166472 77 6490
88       175839 78 6490
89       185206 79 6490
90       194572 80 6490
91       203513 81 6490
92       212880 82 6490
93       222247 83 6490
94       231613 77 6490
95       240554 84 6490
96       249921 85 6490
97       259288 86 6490
98       268655 87 6490
99       277596 88 6490
100       286962 89 6490
101       296329 90 6490
102       305696 91 6490
103       314637 92 6490
104       324003 93 6490
105       333370 94 6490
106       342737 95 6490
107       351678 96 6490
108       361044 97 6490
109       370411 79 6490
110       379778 98 6490
111       388719 99 6490
112       398086 77 6490
113       407452 100 6490
114       416819 101 6490
115       425760 82 6490
116       435127 102 6490
117       444493 103 6490
118       453860 104 6490
119       462801 105 6490
120       472168 106 6490
121       481535 107 6490
122       490901 108 6490
123       499842 109 6490
124       509209 110 6490
125       518576 86 6490
126       527942 111 6490
127       536883 112 6490
128       546250 113 6490
129       555617 79 6490
130       564984 114 6490
131       573924 89 6490
132       583291 115 6490

# Format of trapezoid gradients:
# id amplitude rise flat fall delay
# ..      Hz/m   us   us   us    us
[TRAP]
 1       -42576 1000 4000 1000   0
 2      -269932  60 2000  60  40
 3  1.06951e+06 210   50 210   0

# Format of ADC events:
# id num dwell delay freq phase
# ..  ..    ns    us   Hz   rad
[ADC]
1 256 15000 7020 0 39.2699
2 256 15000 7020 0 47.9966
3 256 15000 7020 0 57.5959
4 256 15000 7020 0 68.0678
5 256 15000 7020 0 79.4125
6 256 15000 7020 0 91.6298
7 256 15000 7020 0 104.72
8 256 15000 7020 0 118.682
9 256 15000 7020 0 133.518
10 256 15000 7020 0 149.226
11 256 15000 7020 0 165.806
12 256 15000 7020 0 183.26
13 256 15000 7020 0 201.586
14 256 15000 7020 0 220.784
15 256 15000 7020 0 240.855
16 256 15000 7020 0 261.799
17 256 15000 7020 0 283.616
18 256 15000 7020 0 306.305
19 256 15000 7020 0 329.867
20 256 15000 7020 0 354.302
21 256 15000 7020 0 379.609
22 256 15000 7020 0 405.789
23 256 15000 7020 0 432.842
24 256 15000 7020 0 460.767
25 256 15000 7020 0 489.565
26 256 15000 7020 0 519.235
27 256 15000 7020 0 549.779
28 256 15000 7020 0 581.195
29 256 15000 7020 0 613.483
30 256 15000 7020 0 646.644
31 256 15000 7020 0 680.678
32 256 15000 7020 0 715.585
33 256 15000 7020 0 751.364
34 256 15000 7020 0 788.016
35 256 15000 7020 0 825.541
36 256 15000 7020 0 863.938
37 256 15000 7020 0 903.208
38 256 15000 7020 0 943.35
39 256 15000 7020 0 984.366
40 256 15000 7020 0 1026.25
41 256 15000 7020 0 1069.01
42 256 15000 7020 0 1112.65
43 256 15000 7020 0 1157.15
44 256 15000 7020 0 1202.53
45 256 15000 7020 0 1248.78
46 256 15000 7020 0 1295.91
47 256 15000 7020 0 1343.9
48 256 15000 7020 0 1392.77
49 256 15000 7020 0 1442.51
50 256 15000 7020 0 1493.13
51 256 15000 7020 0 1544.62
52 256 15000 7020 0 1596.98
53 256 15000 7020 0 1650.21
54 256 15000 7020 0 1704.31
55 256 15000 7020 0 1759.29
56 256 15000 7020 0 1815.14
57 256 15000 7020 0 1871.87
58 256 15000 7020 0 1929.46
59 256 15000 7020 0 1987.93
60 256 15000 7020 0 2047.27
61 256 15000 7020 0 2107.49
62 256 15000 7020 0 2168.57
63 256 15000 7020 0 2230.53
64 256 15000 7020 0 2293.36
65 256 15000 7020 0 2357.07
66 256 15000 7020 0 2421.64
67 256 15000 7020 0 2487.09
68 256 15000 7020 0 2553.42
69 256 15000 7020 0 2620.61
70 256 15000 7020 0 2688.68
71 256 15000 7020 0 2757.62
72 256 15000 7020 0 2827.43
73 256 15000 7020 0 2898.12
74 256 15000 7020 0 2969.68
75 256 15000 7020 0 3042.11
76 256 15000 7020 0 3115.41
77 256 15000 7020 0 3189.59
78 256 15000 7020 0 3264.64
79 256 15000 7020 0 3340.56
80 256 15000 7020 0 3417.35
81 256 15000 7020 0 3495.02
82 256 15000 7020 0 3573.56
83 256 15000 7020 0 3652.97
84 256 15000 7020 0 3733.26
85 256 15000 7020 0 3814.42
86 256 15000 7020 0 3896.45
87 256 15000 7020 0 3979.35
88 256 15000 7020 0 4063.13
89 256 15000 7020 0 4147.77
90 256 15000 7020 0 4233.3
91 256 15000 7020 0 4319.69
92 256 15000 7020 0 4406.96
93 256 15000 7020 0 4495.1
94 256 15000 7020 0 4584.11
95 256 15000 7020 0 4673.99
96 256 15000 7020 0 4764.75
97 256 15000 7020 0 4856.38
98 256 15000 7020 0 4948.88
99 256 15000 7020 0 5042.26
100 256 15000 7020 0 5136.5
101 256 15000 7020 0 5231.62
102 256 15000 7020 0 5327.62
103 256 15000 7020 0 5424.48
104 256 15000 7020 0 5522.22
105 256 15000 7020 0 5620.83
106 256 15000 7020 0 5720.32
107 256 15000 7020 0 5820.67
108 256 15000 7020 0 5921.9
109 256 15000 7020 0 6024
110 256 15000 7020 0 6126.98
111 256 15000 7020 0 6230.83
112 256 15000 7020 0 52.3599
113 256 15000 7020 0 157.952
114 256 15000 7020 0 264.417
115 256 15000 7020 0 371.755
116 256 15000 7020 0 479.966
117 256 15000 7020 0 589.049
118 256 15000 7020 0 699.004
119 256 15000 7020 0 809.833
120 256 15000 7020 0 921.534
121 256 15000 7020 0 1034.11
122 256 15000 7020 0 1147.55
123 256 15000 7020 0 1261.87
124 256 15000 7020 0 1377.06
125 256 15000 7020 0 1610.07
126 256 15000 7020 0 1727.88
127 256 15000 7020 0 1846.56

# Format of delays:
# id delay (us)
[DELAYS]
1 500000
2 2160
3 97840

# Format of extension lists:
# id type ref next_id
# next_id of 0 terminates the list
# Extension list is followed by extension specifications
[EXTENSIONS]
1 1 1 0

# Extension specification for digital output and input triggers:
# id type channel delay (us) duration (us)
extension TRIGGERS 1
1 1 1 0 10

# Sequence Shapes
[SHAPES]

shape_id 1
num_samples 2000
0
0
74
0.0003828
0.0004506
0.0004505
0.0004506
0.0004506
0
7.22e-05
0
0
27
0.0003512
0.0004506
0.0004506
0
0.0004505
0.0004506
0.0001039
0
0
32
0.000315
0.0004506
0.0004506
0
0.0004505
0.0004506
0.00014
0
0
42
-0.0002699
-0.0004505
-0.0004506
-0.0004506
0
-0.0004505
-0.0001852
0
0
22
-0.0002428
-0.0004506
-0.0004505
-0.0004506
-0.0004506
0
-0.0002123
0
0
7
-0.0002292
-0.0004506
-0.0004505
-0.0004506
-0.0004506
0
-0.0002258
0
0
12
0.0002112
0.0004505
0.0004506
0.0004506
0
0.0004505
0.0002439
0
0
2
0.0002022
0.0004505
0.0004506
0.0004506
0
0.0004505
0.0004506
0.0004506
0
0.0004505
0.0004506
0.0004506
0
0.0002574
0
0
2
0.0001886
0.0004506
0.0004505
0.0004506
0.0004506
0
0.0004505
0.0004506
0.0004506
0
0.0004505
0.0004506
0.0004506
0
0.0004505
0.0004506
0.0004506
0
0.0004505
0.0002755
0
0
2
0.0001706
0.0004505
0.0004506
0.0004506
0
0.0004505
0.0004506
0.0004506
0
0.0004505
0.0004506
0.0004505
0.0004506
0.0004506
0
0.0004505
0.0004506
0.0004506
0
0.0004505
0.0004506
0.0004506
0
0.0004505
0.0004506
0.0004506
0
0.0004505
0.0004506
0.0004506
0
0.0004505
0.0007464
0.0013517
0.0013517
2
0.0010649
0.0004506
0.0004505
0.0004506
0.0004506
0
0.0004505
0.0004506
0.0004505
0.0004506
0.0004506
0
0.0004505
0.0004506
0.0004506
0
0.0004505
0.0004506
0.0007103
0.0013517
0.0013517
2
0.001101
0.0004505
0.0004506
0.0004506
0
0.0004505
0.0004506
0.0004506
0
0.0004505
0.0004506
0.0004506
0
0.0004505
0.0004506
0.0004506
0
0.0004505
0.0004506
0.0006741
0.0013517
0.0013517
2
0.0012444
0.0009012
0.0009011
0.0009011
0
0.0009012
0.0007983
0.0004506
0.0004506
0
0.0004505
0.0004506
0.0004505
0.0004506
0.0004506
0
0.0004505
0.0004506
0.0007317
0.0018023
0.0018023
0
0.0018022
0.0018023
0.0016238
0.0009012
0.0009011
0.0009011
1
0.0008165
0.0004505
0.0004506
0.0004506
0
0.0004505
0.0004506
0.0004506
0
0.0004505
0.0004506
0.0004506
0
0.0007532
0.0022528
0.0022528
1
0.0022529
0.0020394
0.0009011
0.0009011
0
0.0009012
0.0009011
0.0009011
1
0.0009012
0.0009011
0.0009011
0
0.0009012
0.0009011
0.0009011
0
0.0009012
0.0009011
0.0010163
0.0018023
0.0018022
0.0018023
0.0018022
0.0016961
0.0009012
0.0009011
0.0009011
0
0.0009012
0.0009011
0.0009011
0
0.0009012
0.0009011
0.0009011
1
0.0009012
0.0009011
0.0009011
0
0.0009012
0.0010197
0.0022528
0.0022528
1
0.0022529
0.0021828
0.0013517
0.0013517
1
0.0013516
0.0013213
0.0009011
0.0009011
1
0.0009012
0.0009011
0.0009011
0
0.0009012
0.0009011
0.0009011
0
0.000987
0.0027034
0.0027034
0
0.0027033
0.0027034
0.0026357
0.0009011
0.0009011
0
0.0009012
0.0009011
0.0009011
1
0.0009012
0.0009011
0.0009011
0
0.0009012
0.0009011
0.0009011
0
0.0009012
0.0009011
0.0009181
0.0031539
0.003154
0.0031539
0.003154
0.0031539
0.0013562
0.0013517
0.0013517
7
0.0009113
0.0009011
0.0009011
0
0.0009012
0.0009011
0.0026447
0.0027034
0.0027033
0.0027034
0.0027034
0
0.0014093
0.0013517
0.0013517
9
0.0013516
0.0013517
0.0013517
0
0.003023
0.003154
0.0031539
0.003154
0.0031539
0.0015008
0.0013517
0.0013517
2
0.0013516
0.0013517
0.0013517
7
0.0029507
0.0031539
0.003154
0.003154
0
0.0031539
0.001573
0.0013517
0.0013517
12
0.0032601
0.0036045
0.0036045
2
0.0017187
0.0013517
0.0013517
7
0.0020879
0.0022529
0.0022528
0.0022528
1
0.0029801
0.0031539
0.003154
0.003154
0
0.0031539
0.0017176
0.0013517
0.0013517
3
0.0013516
0.0013517
0.0013517
1
0.0020518
0.0022529
0.0022528
0.0022528
1
0.002944
0.0031539
0.003154
0.0031539
0.003154
0.0021308
0.0018023
0.0018023
0
0.0018022
0.0018023
0.0018022
0.0018023
0.0018023
0
0.0018022
0.0018023
0.0014702
0.0013517
0.0013517
2
0.0029891
0.0036045
0.0036046
0.0036045
0.0036045
0
0.0023127
0.0018022
0.0018023
0.0018022
0.0018023
0.0018023
0
0.0018022
0.0018023
0.0018022
0.0018023
0.0014883
0.0013517
0.0013517
2
0.0028988
0.0036045
0.0036045
2
0.002385
0.0018022
0.0018023
0.0018023
0
0.0018022
0.0018023
0.0018022
0.0018023
0.0018023
0
0.0018022
0.0018023
0.0018022
0.0018023
0.0018023
0
0.0018022
0.0026763
0.003154
0.0031539
0.003154
0.0031539
0.0022935
0.0018023
0.0018022
0.0018023
0.0018022
0.0018023
0.0018023
0
0.0018022
0.0018023
0.0018022
0.0018023
0.0018023
0
0.0018022
0.0018023
0.0018022
0.0028954
0.0036045
0.0036045
1
0.0036046
0.0022607
0.0013517
0.0013517
6
0.0013516
0.0018712
0.0022528
0.0022528
0
0.0022529
0.0022528
0.0030184
0.0036046
0.0036045
0.0036045
1
0.0023511
0.0013517
0.0013517
3
0.0013516
0.0013517
0.0013517
1
0.001835
0.0022529
0.0022528
0.0022528
1
0.0027271
0.003154
0.003154
0
0.0031539
0.003154
0.002456
0.0018023
0.0018023
0
0.0018022
0.0018023
0.0018022
0.0018023
0.0018023
0
0.0018022
0.0018023
0.0015787
0.0013516
0.0013517
0.0013517
1
0.002228
0.003154
0.0031539
0.003154
0.0031539
0.0025103
0.0018023
0.0018022
0.0018023
0.0018023
0
0.0015922
0.0013517
0.0013517
3
0.0013516
0.0013517
0.0013517
1
0.0023567
0.0036046
0.0036045
0.0036045
1
0.0026221
0.0013517
0.0013517
9
0.0013516
0.0013517
0.0013517
0
0.0020835
0.0031539
0.003154
0.0031539
0.003154
0.0026187
0.0018022
0.0018023
0.0018023
0
0.0018022
0.0016284
0.0013517
0.0013517
4
0.0013516
0.0013517
0.0013517
0
0.0018463
0.0027034
0.0027034
2
0.0022223
0.0013517
0.0013517
12
0.0016453
0.0022528
0.0022528
2
0.0019683
0.0013517
0.0013517
7
0.0012184
0.0009011
0.0009012
0.0009011
0.0009011
0
0.0012874
0.0022528
0.0022528
2
0.0020044
0.0013517
0.0013517
2
0.001232
0.0009011
0.0009012
0.0009011
0.0009011
0
0.0009012
0.0009011
0.0009011
0
0.0009012
0.0009011
0.0012331
0.0022528
0.0022529
0.0022528
0.0022528
0
0.0019344
0.0009011
0.0009011
0
0.0009012
0.0009011
0.0009011
0
0.0009012
0.0009011
0.0009011
0
0.0009012
0.0009011
0.0009011
1
0.0009012
0.0009011
0.0010863
0.0018023
0.0018022
0.0018023
0.0018023
0
0.0016261
0.0009011
0.0009011
0
0.0009012
0.0009011
0.0008176
0.0004505
0.0004506
0.0004505
0.0004506
0.0004506
0
0.0004505
0.0004506
0.0004506
0
0.0004505
0.0006742
0.0018022
0.0018023
0.0018023
0
0.0018022
0.0015922
0.0004506
0.0004506
0
0.0004505
0.0004506
0.0004506
0
0.0004505
0.0004506
0.0004506
0
0.0004505
0.0004506
0.0004506
0
0.0004505
0.0004506
0.0004506
0
0.0005634
0.0013517
0.0013517
2
0.0012478
0.0004506
0.0004506
0
0.0004505
0.0004506
0.0004506
0
0.0004505
0.0004506
0.0004505
0.0004506
0.0004506
0
0.0004505
0.0004506
0.0004506
0
0.0004505
0.0004506
0.0004506
0
0.0004505
0.0004506
0.0004506
0
0.0004505
0.0004506
0.0004506
0
0.0004505
0.0004506
0.0004506
0
0.0004505
0.0004506
0.0004505
0.0004506
0.0004506
0
0.0004505
0.0004506
0.0004506
0
0.0004505
0.0004506
0.0004506
0
0.0004505
0.0004506
0.0004506
0
0.0004347
0
0
12
2.3e-06
0.0004505
0.0004506
0.0004506
0
0.0004505
0.0004506
-0.000446
-0.0004506
-0.0004506
0
-0.0004505
-0.0004506
-6.8e-06
0
0
7
-0.0004347
-0.0004506
-0.0004506
0
-0.0004505
-0.0004506
-2.03e-05
0
0
2
-0.0004257
-0.0004506
-0.0004506
0
-0.0004505
-0.0004506
-2.94e-05
0
0
2
-0.0008333
-0.0009012
-0.0009011
-0.0009011
0
-0.0009012
-0.0004889
-0.0004506
-0.0004505
-0.0004506
-0.0004506
0
-0.0004505
-0.0004506
-0.0004506
0
-0.0004505
-0.0004506
-0.0004506
0
-0.0004505
-0.0004506
-0.0004506
0
-0.0004505
-0.0004506
-0.0004506
0
-0.0004505
-0.0004506
-0.0004506
0
-0.0004505
-0.0004506
-0.0004505
-0.0004506
-0.0004506
0
-0.0004505
-0.0004506
-0.0004506
0
-0.0004505
-0.0004506
-0.0012207
-0.0013517
-0.0013517
7
-0.0005996
-0.0004505
-0.0004506
-0.0004506
0
-0.0004505
-0.0004506
-0.0004506
0
-0.0004505
-0.0004506
-0.0004506
0
-0.0004505
-0.0004506
-0.0004506
0
-0.0004505
-0.0004506
-0.0019005
-0.0022528
-0.0022528
0
-0.0022529
-0.0022528
-0.0011789
-0.0009011
-0.0009012
-0.0009011
-0.0009011
0
-0.0009012
-0.0009011
-0.0009011
0
-0.0009012
-0.0009011
-0.0009011
1
-0.0009012
-0.0009011
-0.0009011
0
-0.00159
-0.0018023
-0.0018022
-0.0018023
-0.0018022
-0.0014624
-0.0013517
-0.0013517
2
-0.0010163
-0.0009011
-0.0009011
0
-0.0009012
-0.0009011
-0.0009011
0
-0.0009012
-0.0009011
-0.0009011
0
-0.0009012
-0.0018801
-0.0022529
-0.0022528
-0.0022528
1
-0.0016092
-0.0013517
-0.0013517
2
-0.0010343
-0.0009012
-0.0009011
-0.0009011
0
-0.0009012
-0.0009011
-0.0009011
0
-0.0009012
-0.0009011
-0.0009011
0
-0.0024425
-0.003154
-0.003154
0
-0.0031539
-0.003154
-0.0016351
-0.0009011
-0.0009012
-0.0009011
-0.0009011
1
-0.0009012
-0.0009011
-0.0009011
0
-0.0009012
-0.0014906
-0.0018022
-0.0018023
-0.0018022
-0.0018023
-0.0023827
-0.0027034
-0.0027034
1
-0.0027033
-0.0018463
-0.0013517
-0.0013517
12
-0.0024402
-0.003154
-0.003154
0
-0.0031539
-0.003154
-0.0020834
-0.0013517
-0.0013517
7
-0.0013516
-0.0013517
-0.0013517
2
-0.0026221
-0.0036045
-0.0036045
0
-0.0036046
-0.0036045
-0.0023567
-0.0013517
-0.0013517
7
-0.0013516
-0.0013517
-0.0013517
2
-0.0025318
-0.0036045
-0.0036045
2
-0.0026786
-0.0018023
-0.0018022
-0.0018023
-0.0018022
-0.0015753
-0.0013517
-0.0013517
7
-0.0024414
-0.0036045
-0.0036045
1
-0.0036046
-0.0027508
-0.0018022
-0.0018023
-0.0018022
-0.0018023
-0.0018023
0
-0.0018022
-0.0018023
-0.0018022
-0.0018023
-0.0018023
0
-0.0018022
-0.0018023
-0.0018022
-0.0018023
-0.0024019
-0.0031539
-0.003154
-0.003154
0
-0.0031539
-0.0025679
-0.0018022
-0.0018023
-0.0018023
0
-0.0018022
-0.0018023
-0.0018022
-0.0018023
-0.0018023
0
-0.0018022
-0.0018023
-0.0018022
-0.0018023
-0.0018023
0
-0.0018022
-0.0023477
-0.003154
-0.0031539
-0.003154
-0.0031539
-0.0026221
-0.0018023
-0.0018022
-0.0018023
-0.0018022
-0.0018023
-0.0018023
0
-0.0018022
-0.0018023
-0.0018022
-0.0018023
-0.0018023
0
-0.0018022
-0.0018023
-0.0018022
-0.0024573
-0.0036045
-0.0036045
2
-0.0028084
-0.0013517
-0.0013517
7
-0.0016521
-0.0022528
-0.0022528
1
-0.0022529
-0.0026898
-0.0036045
-0.0036045
0
-0.0036046
-0.0036045
-0.0030399
-0.0018022
-0.0018023
-0.0018023
0
-0.0018022
-0.0016656
-0.0013517
-0.0013517
7
-0.0021173
-0.0040551
-0.0040551
1
-0.004055
-0.0034397
-0.0018023
-0.0018022
-0.0018023
-0.0018022
-0.0016837
-0.0013517
-0.0013517
7
-0.0020089
-0.0040551
-0.0040551
0
-0.004055
-0.0040551
-0.003425
-0.0013517
-0.0013517
5
-0.0013516
-0.0013517
-0.0015437
-0.0022528
-0.0022529
-0.0022528
-0.0022528
0
-0.0024358
-0.0031539
-0.003154
-0.0031539
-0.003154
-0.0028061
-0.0013517
-0.0013517
7
-0.0015075
-0.0022528
-0.0022529
-0.0022528
-0.0022528
1
-0.0022529
-0.0022528
-0.0022528
1
-0.0022529
-0.0022528
-0.0022528
1
-0.0022529
-0.002124
-0.0013517
-0.0013517
7
-0.001573
-0.003154
-0.0031539
-0.003154
-0.0031539
-0.0030016
-0.0018022
-0.0018023
-0.0018022
-0.0018023
-0.001756
-0.0013516
-0.0013517
-0.0013517
6
-0.0014635
-0.0027034
-0.0027034
1
-0.0027033
-0.0026379
-0.0018023
-0.0018023
0
-0.0018022
-0.0018023
-0.001774
-0.0013517
-0.0013517
7
-0.0014092
-0.0027034
-0.0027034
2
-0.0026594
-0.0013516
-0.0013517
-0.0013517
1
-0.0013416
-0.0009011
-0.0009011
0
-0.0009012
