# Pulseq sequence file
# Created by PyPulseq

[VERSION]
major 1
minor 4
revision 0

[DEFINITIONS]
AdcRasterTime 1e-07 
BlockDurationRaster 1e-05 
GradientRasterTime 1e-05 
Name test/test_data/approved/gre.seq 
RadiofrequencyRasterTime 1e-06 

# Format of blocks:
# NUM DUR RF  GX  GY  GZ  ADC  EXT
[BLOCKS]
  1 50000   0   1   1   1  0  0
  2 50000   0   1   1   1  0  0
  3 50000   0   1   1   1  0  0
  4 216   1   0   0   2  0  1
  5 9784   0   5   4   3  1  0
  6 216   2   0   0   2  0  1
  7 9784   0   5   6   3  2  0
  8 216   3   0   0   2  0  1
  9 9784   0   5   7   3  3  0
 10 216   4   0   0   2  0  1
 11 9784   0   5   8   3  4  0
 12 216   5   0   0   2  0  1
 13 9784   0   5   9   3  5  0
 14 216   6   0   0   2  0  1
 15 9784   0   5  10   3  6  0
 16 216   7   0   0   2  0  1
 17 9784   0   5  11   3  7  0
 18 216   8   0   0   2  0  1
 19 9784   0   5  12   3  8  0
 20 216   9   0   0   2  0  1
 21 9784   0   5  13   3  9  0
 22 216  10   0   0   2  0  1
 23 9784   0   5  14   3 10  0
 24 216  11   0   0   2  0  1
 25 9784   0   5  15   3 11  0
 26 216  12   0   0   2  0  1
 27 9784   0   5  16   3 12  0
 28 216  13   0   0   2  0  1
 29 9784   0   5  17   3 13  0
 30 216  14   0   0   2  0  1
 31 9784   0   5  18   3 14  0
 32 216  15   0   0   2  0  1
 33 9784   0   5  19   3 15  0
 34 216  16   0   0   2  0  1
 35 9784   0   5  20   3 16  0
 36 216  17   0   0   2  0  1
 37 9784   0   5  21   3 17  0
 38 216  18   0   0   2  0  1
 39 9784   0   5  22   3 18  0
 40 216  19   0   0   2  0  1
 41 9784   0   5  23   3 19  0
 42 216  20   0   0   2  0  1
 43 9784   0   5  24   3 20  0
 44 216  21   0   0   2  0  1
 45 9784   0   5  25   3 21  0
 46 216  22   0   0   2  0  1
 47 9784   0   5  26   3 22  0
 48 216  23   0   0   2  0  1
 49 9784   0   5  27   3 23  0
 50 216  24   0   0   2  0  1
 51 9784   0   5  28   3 24  0
 52 216  25   0   0   2  0  1
 53 9784   0   5  29   3 25  0
 54 216  26   0   0   2  0  1
 55 9784   0   5  30   3 26  0
 56 216  27   0   0   2  0  1
 57 9784   0   5  31   3 27  0
 58 216  28   0   0   2  0  1
 59 9784   0   5  32   3 28  0
 60 216  29   0   0   2  0  1
 61 9784   0   5  33   3 29  0
 62 216  30   0   0   2  0  1
 63 9784   0   5  34   3 30  0
 64 216  31   0   0   2  0  1
 65 9784   0   5  35   3 31  0
 66 216  32   0   0   2  0  1
 67 9784   0   5  36   3 32  0
 68 216  33   0   0   2  0  1
 69 9784   0   5  37   3 33  0
 70 216  34   0   0   2  0  1
 71 9784   0   5  38   3 34  0
 72 216  35   0   0   2  0  1
 73 9784   0   5  39   3 35  0
 74 216  36   0   0   2  0  1
 75 9784   0   5  40   3 36  0
 76 216  37   0   0   2  0  1
 77 9784   0   5  41   3 37  0
 78 216  38   0   0   2  0  1
 79 9784   0   5  42   3 38  0
 80 216  39   0   0   2  0  1
 81 9784   0   5  43   3 39  0
 82 216  40   0   0   2  0  1
 83 9784   0   5  44   3 40  0
 84 216  41   0   0   2  0  1
 85 9784   0   5  45   3 41  0
 86 216  42   0   0   2  0  1
 87 9784   0   5  46   3 42  0
 88 216  43   0   0   2  0  1
 89 9784   0   5  47   3 43  0
 90 216  44   0   0   2  0  1
 91 9784   0   5  48   3 44  0
 92 216  45   0   0   2  0  1
 93 9784   0   5  49   3 45  0
 94 216  46   0   0   2  0  1
 95 9784   0   5  50   3 46  0
 96 216  47   0   0   2  0  1
 97 9784   0   5  51   3 47  0
 98 216  48   0   0   2  0  1
 99 9784   0   5  52   3 48  0
100 216  49   0   0   2  0  1
101 9784   0   5  53   3 49  0
102 216  50   0   0   2  0  1
103 9784   0   5  54   3 50  0
104 216  51   0   0   2  0  1
105 9784   0   5  55   3 51  0
106 216  52   0   0   2  0  1
107 9784   0   5  56   3 52  0
108 216  53   0   0   2  0  1
109 9784   0   5  57   3 53  0
110 216  54   0   0   2  0  1
111 9784   0   5  58   3 54  0
112 216  55   0   0   2  0  1
113 9784   0   5  59   3 55  0
114 216  56   0   0   2  0  1
115 9784   0   5  60   3 56  0
116 216  57   0   0   2  0  1
117 9784   0   5  61   3 57  0
118 216  58   0   0   2  0  1
119 9784   0   5  62   3 58  0
120 216  59   0   0   2  0  1
121 9784   0   5  63   3 59  0
122 216  60   0   0   2  0  1
123 9784   0   5  64   3 60  0
124 216  61   0   0   2  0  1
125 9784   0   5  65   3 61  0
126 216  62   0   0   2  0  1
127 9784   0   5  66   3 62  0
128 216  63   0   0   2  0  1
129 9784   0   5  67   3 63  0
130 216  64   0   0   2  0  1
131 9784   0   5  68   3 64  0
132 216  65   0   0   2  0  1
133 9784   0   5  69   3 65  0
134 216  66   0   0   2  0  1
135 9784   0   5  70   3 66  0
136 216  67   0   0   2  0  1
137 9784   0   5  71   3 67  0
138 216  68   0   0   2  0  1
139 9784   0   5  72   3 68  0
140 216  69   0   0   2  0  1
141 9784   0   5  73   3 69  0
142 216  70   0   0   2  0  1
143 9784   0   5  74   3 70  0
144 216  71   0   0   2  0  1
145 9784   0   5  75   3 71  0
146 216  72   0   0   2  0  1
147 9784   0   5  76   3 72  0
148 216  73   0   0   2  0  1
149 9784   0   5  77   3 73  0
150 216  74   0   0   2  0  1
151 9784   0   5  78   3 74  0
152 216  75   0   0   2  0  1
153 9784   0   5  79   3 75  0
154 216  76   0   0   2  0  1
155 9784   0   5  80   3 76  0
156 216  77   0   0   2  0  1
157 9784   0   5  81   3 77  0
158 216  78   0   0   2  0  1
159 9784   0   5  82   3 78  0
160 216  79   0   0   2  0  1
161 9784   0   5  83   3 79  0
162 216  80   0   0   2  0  1
163 9784   0   5  84   3 80  0
164 216  81   0   0   2  0  1
165 9784   0   5  85   3 81  0
166 216  82   0   0   2  0  1
167 9784   0   5  86   3 82  0
168 216  83   0   0   2  0  1
169 9784   0   5  87   3 83  0
170 216  84   0   0   2  0  1
171 9784   0   5  88   3 84  0
172 216  85   0   0   2  0  1
173 9784   0   5  89   3 85  0
174 216  86   0   0   2  0  1
175 9784   0   5  90   3 86  0
176 216  87   0   0   2  0  1
177 9784   0   5  91   3 87  0
178 216  88   0   0   2  0  1
179 9784   0   5  92   3 88  0
180 216  89   0   0   2  0  1
181 9784   0   5  93   3 89  0
182 216  90   0   0   2  0  1
183 9784   0   5  94   3 90  0
184 216  91   0   0   2  0  1
185 9784   0   5  95   3 91  0
186 216  92   0   0   2  0  1
187 9784   0   5  96   3 92  0
188 216  93   0   0   2  0  1
189 9784   0   5  97   3 93  0
190 216  94   0   0   2  0  1
191 9784   0   5  98   3 94  0
192 216  95   0   0   2  0  1
193 9784   0   5  99   3 95  0
194 216  96   0   0   2  0  1
195 9784   0   5 100   3 96  0
196 216  97   0   0   2  0  1
197 9784   0   5 101   3 97  0
198 216  98   0   0   2  0  1
199 9784   0   5 102   3 98  0
200 216  99   0   0   2  0  1
201 9784   0   5 103   3 99  0
202 216 100   0   0   2  0  1
203 9784   0   5 104   3 100  0
204 216 101   0   0   2  0  1
205 9784   0   5 105   3 101  0
206 216 102   0   0   2  0  1
207 9784   0   5 106   3 102  0
208 216 103   0   0   2  0  1
209 9784   0   5 107   3 103  0
210 216 104   0   0   2  0  1
211 9784   0   5 108   3 104  0
212 216 105   0   0   2  0  1
213 9784   0   5 109   3 105  0
214 216 106   0   0   2  0  1
215 9784   0   5 110   3 106  0
216 216 107   0   0   2  0  1
217 9784   0   5 111   3 107  0
218 216 108   0   0   2  0  1
219 9784   0   5 112   3 108  0
220 216 109   0   0   2  0  1
221 9784   0   5 113   3 109  0
222 216 110   0   0   2  0  1
223 9784   0   5 114   3 110  0
224 216 111   0   0   2  0  1
225 9784   0   5 115   3 111  0
226 216 112   0   0   2  0  1
227 9784   0   5 116   3 112  0
228 216 113   0   0   2  0  1
229 9784   0   5 117   3 113  0
230 216 114   0   0   2  0  1
231 9784   0   5 118   3 114  0
232 216 115   0   0   2  0  1
233 9784   0   5 119   3 115  0
234 216 116   0   0   2  0  1
235 9784   0   5 120   3 116  0
236 216 117   0   0   2  0  1
237 9784   0   5 121   3 117  0
238 216 118   0   0   2  0  1
239 9784   0   5 122   3 118  0
240 216 119   0   0   2  0  1
241 9784   0   5 123   3 119  0
242 216 120   0   0   2  0  1
243 9784   0   5 124   3 120  0
244 216 121   0   0   2  0  1
245 9784   0   5 125   3 121  0
246 216 122   0   0   2  0  1
247 9784   0   5 126   3 122  0
248 216 123   0   0   2  0  1
249 9784   0   5 127   3 123  0
250 216 124   0   0   2  0  1
251 9784   0   5 128   3 124  0
252 216  50   0   0   2  0  1
253 9784   0   5 129   3 50  0
254 216 125   0   0   2  0  1
255 9784   0   5 130   3 125  0
256 216 126   0   0   2  0  1
257 9784   0   5 131   3 126  0
258 216 127   0   0   2  0  1
259 9784   0   5 132   3 127  0

# Format of RF events:
# id amplitude mag_id phase_id time_shape_id delay freq phase
# ..        Hz   ....     ....          ....    us   Hz   rad
[RF]
1      99.0921 1 2 3 100 0 39.2699
2      99.0921 1 2 3 100 0 47.9966
3      99.0921 1 2 3 100 0 57.5959
4      99.0921 1 2 3 100 0 68.0678
5      99.0921 1 2 3 100 0 79.4125
6      99.0921 1 2 3 100 0 91.6298
7      99.0921 1 2 3 100 0 104.72
8      99.0921 1 2 3 100 0 118.682
9      99.0921 1 2 3 100 0 133.518
10      99.0921 1 2 3 100 0 149.226
11      99.0921 1 2 3 100 0 165.806
12      99.0921 1 2 3 100 0 183.26
13      99.0921 1 2 3 100 0 201.586
14      99.0921 1 2 3 100 0 220.784
15      99.0921 1 2 3 100 0 240.855
16      99.0921 1 2 3 100 0 261.799
17      99.0921 1 2 3 100 0 283.616
18      99.0921 1 2 3 100 0 306.305
19      99.0921 1 2 3 100 0 329.867
20      99.0921 1 2 3 100 0 354.302
21      99.0921 1 2 3 100 0 379.609
22      99.0921 1 2 3 100 0 405.789
23      99.0921 1 2 3 100 0 432.842
24      99.0921 1 2 3 100 0 460.767
25      99.0921 1 2 3 100 0 489.565
26      99.0921 1 2 3 100 0 519.235
27      99.0921 1 2 3 100 0 549.779
28      99.0921 1 2 3 100 0 581.195
29      99.0921 1 2 3 100 0 613.483
30      99.0921 1 2 3 100 0 646.644
31      99.0921 1 2 3 100 0 680.678
32      99.0921 1 2 3 100 0 715.585
33      99.0921 1 2 3 100 0 751.364
34      99.0921 1 2 3 100 0 788.016
35      99.0921 1 2 3 100 0 825.541
36      99.0921 1 2 3 100 0 863.938
37      99.0921 1 2 3 100 0 903.208
38      99.0921 1 2 3 100 0 943.35
39      99.0921 1 2 3 100 0 984.366
40      99.0921 1 2 3 100 0 1026.25
41      99.0921 1 2 3 100 0 1069.01
42      99.0921 1 2 3 100 0 1112.65
43      99.0921 1 2 3 100 0 1157.15
44      99.0921 1 2 3 100 0 1202.53
45      99.0921 1 2 3 100 0 1248.78
46      99.0921 1 2 3 100 0 1295.91
47      99.0921 1 2 3 100 0 1343.9
48      99.0921 1 2 3 100 0 1392.77
49      99.0921 1 2 3 100 0 1442.51
50      99.0921 1 2 3 100 0 1493.13
51      99.0921 1 2 3 100 0 1544.62
52      99.0921 1 2 3 100 0 1596.98
53      99.0921 1 2 3 100 0 1650.21
54      99.0921 1 2 3 100 0 1704.31
55      99.0921 1 2 3 100 0 1759.29
56      99.0921 1 2 3 100 0 1815.14
57      99.0921 1 2 3 100 0 1871.87
58      99.0921 1 2 3 100 0 1929.46
59      99.0921 1 2 3 100 0 1987.93
60      99.0921 1 2 3 100 0 2047.27
61      99.0921 1 2 3 100 0 2107.49
62      99.0921 1 2 3 100 0 2168.57
63      99.0921 1 2 3 100 0 2230.53
64      99.0921 1 2 3 100 0 2293.36
65      99.0921 1 2 3 100 0 2357.07
66      99.0921 1 2 3 100 0 2421.64
67      99.0921 1 2 3 100 0 2487.09
68      99.0921 1 2 3 100 0 2553.42
69      99.0921 1 2 3 100 0 2620.61
70      99.0921 1 2 3 100 0 2688.68
71      99.0921 1 2 3 100 0 2757.62
72      99.0921 1 2 3 100 0 2827.43
73      99.0921 1 2 3 100 0 2898.12
74      99.0921 1 2 3 100 0 2969.68
75      99.0921 1 2 3 100 0 3042.11
76      99.0921 1 2 3 100 0 3115.41
77      99.0921 1 2 3 100 0 3189.59
78      99.0921 1 2 3 100 0 3264.64
79      99.0921 1 2 3 100 0 3340.56
80      99.0921 1 2 3 100 0 3417.35
81      99.0921 1 2 3 100 0 3495.02
82      99.0921 1 2 3 100 0 3573.56
83      99.0921 1 2 3 100 0 3652.97
84      99.0921 1 2 3 100 0 3733.26
85      99.0921 1 2 3 100 0 3814.42
86      99.0921 1 2 3 100 0 3896.45
87      99.0921 1 2 3 100 0 3979.35
88      99.0921 1 2 3 100 0 4063.13
89      99.0921 1 2 3 100 0 4147.77
90      99.0921 1 2 3 100 0 4233.3
91      99.0921 1 2 3 100 0 4319.69
92      99.0921 1 2 3 100 0 4406.96
93      99.0921 1 2 3 100 0 4495.1
94      99.0921 1 2 3 100 0 4584.11
95      99.0921 1 2 3 100 0 4673.99
96      99.0921 1 2 3 100 0 4764.75
97      99.0921 1 2 3 100 0 4856.38
98      99.0921 1 2 3 100 0 4948.88
99      99.0921 1 2 3 100 0 5042.26
100      99.0921 1 2 3 100 0 5136.5
101      99.0921 1 2 3 100 0 5231.62
102      99.0921 1 2 3 100 0 5327.62
103      99.0921 1 2 3 100 0 5424.48
104      99.0921 1 2 3 100 0 5522.22
105      99.0921 1 2 3 100 0 5620.83
106      99.0921 1 2 3 100 0 5720.32
107      99.0921 1 2 3 100 0 5820.67
108      99.0921 1 2 3 100 0 5921.9
109      99.0921 1 2 3 100 0 6024
110      99.0921 1 2 3 100 0 6126.98
111      99.0921 1 2 3 100 0 6230.83
112      99.0921 1 2 3 100 0 52.3599
113      99.0921 1 2 3 100 0 157.952
114      99.0921 1 2 3 100 0 264.417
115      99.0921 1 2 3 100 0 371.755
116      99.0921 1 2 3 100 0 479.966
117      99.0921 1 2 3 100 0 589.049
118      99.0921 1 2 3 100 0 699.004
119      99.0921 1 2 3 100 0 809.833
120      99.0921 1 2 3 100 0 921.534
121      99.0921 1 2 3 100 0 1034.11
122      99.0921 1 2 3 100 0 1147.55
123      99.0921 1 2 3 100 0 1261.87
124      99.0921 1 2 3 100 0 1377.06
125      99.0921 1 2 3 100 0 1610.07
126      99.0921 1 2 3 100 0 1727.88
127      99.0921 1 2 3 100 0 1846.56

# Format of arbitrary gradients:
#   time_shape_id of 0 means default timing (stepping with grad_raster starting at 1/2 of grad_raster)
# id amplitude amp_shape_id time_shape_id delay
# ..      Hz/m       ..         ..          us
[GRADIENTS]
4       592658 4 5 6490
5  1.78819e+06 6 7 6490
6       583291 8 5 6490
7       573924 9 5 6490
8       564984 10 5 6490
9       555617 11 5 6490
10       546250 12 5 6490
11       536883 13 5 6490
12       527942 14 5 6490
13       518576 15 5 6490
14       509209 16 5 6490
15       499842 17 5 6490
16       490901 18 5 6490
17       481535 19 5 6490
18       472168 20 5 6490
19       462801 21 5 6490
20       453860 22 5 6490
21       444493 23 5 6490
22       435127 24 5 6490
23       425760 25 5 6490
24       416819 26 5 6490
25       407452 27 5 6490
26       398086 28 5 6490
27       388719 29 5 6490
28       379778 30 5 6490
29       370411 11 5 6490
30       361044 31 5 6490
31       351678 32 5 6490
32       342737 33 5 6490
33       333370 34 5 6490
34       324003 35 5 6490
35       314637 36 5 6490
36       305696 37 5 6490
37       296329 4 5 6490
38       286962 9 5 6490
39       277596 38 5 6490
40       268655 39 5 6490
41       259288 15 5 6490
42       249921 40 5 6490
43       240554 41 5 6490
44       231613 28 5 6490
45       222247 42 5 6490
46       212880 25 5 6490
47       203513 43 5 6490
48       194572 44 5 6490
49       185206 11 5 6490
50       175839 45 5 6490
51       166472 28 5 6490
52       157531 46 5 6490
53       148164 47 5 6490
54       138798 48 5 6490
55       129431 49 5 6490
56       120490 50 5 6490
57       111123 42 5 6490
58       101757 43 5 6490
59      92389.9 51 5 6490
60        83449 52 5 6490
61      74082.2 47 5 6490
62      64715.5 53 5 6490
63      55348.8 54 5 6490
64      46407.8 55 5 6490
65      37041.1 56 5 6490
66      27674.4 54 5 6490
67      18307.7 57 5 6490
68      9366.72 58 5 6490
69            0 59 5 6490
70     -9366.72 60 5 6490
71     -18307.7 61 5 6490
72     -27674.4 62 5 6490
73     -37041.1 63 5 6490
74     -46407.8 64 5 6490
75     -55348.8 62 5 6490
76     -64715.5 65 5 6490
77     -74082.2 66 5 6490
78       -83449 67 5 6490
79     -92389.9 68 5 6490
80      -101757 69 5 6490
81      -111123 70 5 6490
82      -120490 71 5 6490
83      -129431 72 5 6490
84      -138798 73 5 6490
85      -148164 66 5 6490
86      -157531 74 5 6490
87      -166472 75 5 6490
88      -175839 76 5 6490
89      -185206 77 5 6490
90      -194572 78 5 6490
91      -203513 69 5 6490
92      -212880 79 5 6490
93      -222247 70 5 6490
94      -231613 75 5 6490
95      -240554 80 5 6490
96      -249921 81 5 6490
97      -259288 82 5 6490
98      -268655 83 5 6490
99      -277596 84 5 6490
100      -286962 85 5 6490
101      -296329 86 5 6490
102      -305696 87 5 6490
103      -314637 88 5 6490
104      -324003 89 5 6490
105      -333370 90 5 6490
106      -342737 91 5 6490
107      -351678 92 5 6490
108      -361044 93 5 6490
109      -370411 77 5 6490
110      -379778 94 5 6490
111      -388719 95 5 6490
112      -398086 75 5 6490
113      -407452 96 5 6490
114      -416819 97 5 6490
115      -425760 79 5 6490
116      -435127 98 5 6490
117      -444493 99 5 6490
118      -453860 100 5 6490
119      -462801 101 5 6490
120      -472168 102 5 6490
121      -481535 103 5 6490
122      -490901 104 5 6490
123      -499842 105 5 6490
124      -509209 106 5 6490
125      -518576 82 5 6490
126      -527942 107 5 6490
127      -536883 108 5 6490
128      -546250 109 5 6490
129      -555617 77 5 6490
130      -564984 110 5 6490
131      -573924 85 5 6490
132      -583291 111 5 6490

# Format of trapezoid gradients:
# id amplitude rise flat fall delay
# ..      Hz/m   us   us   us    us
[TRAP]
 1       -42576 1000 4000 1000   0
 2      -269932  60 2000  60  40
 3  1.06951e+06 210   50 210   0

# Format of ADC events:
# id num dwell delay freq phase
# ..  ..    ns    us   Hz   rad
[ADC]
1 256 15000 7020 0 39.2699
2 256 15000 7020 0 47.9966
3 256 15000 7020 0 57.5959
4 256 15000 7020 0 68.0678
5 256 15000 7020 0 79.4125
6 256 15000 7020 0 91.6298
7 256 15000 7020 0 104.72
8 256 15000 7020 0 118.682
9 256 15000 7020 0 133.518
10 256 15000 7020 0 149.226
11 256 15000 7020 0 165.806
12 256 15000 7020 0 183.26
13 256 15000 7020 0 201.586
14 256 15000 7020 0 220.784
15 256 15000 7020 0 240.855
16 256 15000 7020 0 261.799
17 256 15000 7020 0 283.616
18 256 15000 7020 0 306.305
19 256 15000 7020 0 329.867
20 256 15000 7020 0 354.302
21 256 15000 7020 0 379.609
22 256 15000 7020 0 405.789
23 256 15000 7020 0 432.842
24 256 15000 7020 0 460.767
25 256 15000 7020 0 489.565
26 256 15000 7020 0 519.235
27 256 15000 7020 0 549.779
28 256 15000 7020 0 581.195
29 256 15000 7020 0 613.483
30 256 15000 7020 0 646.644
31 256 15000 7020 0 680.678
32 256 15000 7020 0 715.585
33 256 15000 7020 0 751.364
34 256 15000 7020 0 788.016
35 256 15000 7020 0 825.541
36 256 15000 7020 0 863.938
37 256 15000 7020 0 903.208
38 256 15000 7020 0 943.35
39 256 15000 7020 0 984.366
40 256 15000 7020 0 1026.25
41 256 15000 7020 0 1069.01
42 256 15000 7020 0 1112.65
43 256 15000 7020 0 1157.15
44 256 15000 7020 0 1202.53
45 256 15000 7020 0 1248.78
46 256 15000 7020 0 1295.91
47 256 15000 7020 0 1343.9
48 256 15000 7020 0 1392.77
49 256 15000 7020 0 1442.51
50 256 15000 7020 0 1493.13
51 256 15000 7020 0 1544.62
52 256 15000 7020 0 1596.98
53 256 15000 7020 0 1650.21
54 256 15000 7020 0 1704.31
55 256 15000 7020 0 1759.29
56 256 15000 7020 0 1815.14
57 256 15000 7020 0 1871.87
58 256 15000 7020 0 1929.46
59 256 15000 7020 0 1987.93
60 256 15000 7020 0 2047.27
61 256 15000 7020 0 2107.49
62 256 15000 7020 0 2168.57
63 256 15000 7020 0 2230.53
64 256 15000 7020 0 2293.36
65 256 15000 7020 0 2357.07
66 256 15000 7020 0 2421.64
67 256 15000 7020 0 2487.09
68 256 15000 7020 0 2553.42
69 256 15000 7020 0 2620.61
70 256 15000 7020 0 2688.68
71 256 15000 7020 0 2757.62
72 256 15000 7020 0 2827.43
73 256 15000 7020 0 2898.12
74 256 15000 7020 0 2969.68
75 256 15000 7020 0 3042.11
76 256 15000 7020 0 3115.41
77 256 15000 7020 0 3189.59
78 256 15000 7020 0 3264.64
79 256 15000 7020 0 3340.56
80 256 15000 7020 0 3417.35
81 256 15000 7020 0 3495.02
82 256 15000 7020 0 3573.56
83 256 15000 7020 0 3652.97
84 256 15000 7020 0 3733.26
85 256 15000 7020 0 3814.42
86 256 15000 7020 0 3896.45
87 256 15000 7020 0 3979.35
88 256 15000 7020 0 4063.13
89 256 15000 7020 0 4147.77
90 256 15000 7020 0 4233.3
91 256 15000 7020 0 4319.69
92 256 15000 7020 0 4406.96
93 256 15000 7020 0 4495.1
94 256 15000 7020 0 4584.11
95 256 15000 7020 0 4673.99
96 256 15000 7020 0 4764.75
97 256 15000 7020 0 4856.38
98 256 15000 7020 0 4948.88
99 256 15000 7020 0 5042.26
100 256 15000 7020 0 5136.5
101 256 15000 7020 0 5231.62
102 256 15000 7020 0 5327.62
103 256 15000 7020 0 5424.48
104 256 15000 7020 0 5522.22
105 256 15000 7020 0 5620.83
106 256 15000 7020 0 5720.32
107 256 15000 7020 0 5820.67
108 256 15000 7020 0 5921.9
109 256 15000 7020 0 6024
110 256 15000 7020 0 6126.98
111 256 15000 7020 0 6230.83
112 256 15000 7020 0 52.3599
113 256 15000 7020 0 157.952
114 256 15000 7020 0 264.417
115 256 15000 7020 0 371.755
116 256 15000 7020 0 479.966
117 256 15000 7020 0 589.049
118 256 15000 7020 0 699.004
119 256 15000 7020 0 809.833
120 256 15000 7020 0 921.534
121 256 15000 7020 0 1034.11
122 256 15000 7020 0 1147.55
123 256 15000 7020 0 1261.87
124 256 15000 7020 0 1377.06
125 256 15000 7020 0 1610.07
126 256 15000 7020 0 1727.88
127 256 15000 7020 0 1846.56

# Format of extension lists:
# id type ref next_id
# next_id of 0 terminates the list
# Extension list is followed by extension specifications
[EXTENSIONS]
1 1 1 0

# Extension specification for digital output and input triggers:
# id type channel delay (us) duration (us)
extension TRIGGERS 1
1 1 1 0 10

# Sequence Shapes
[SHAPES]

shape_id 1
num_samples 2000
0
0
74
0.0003828
0.0004506
0.0004505
0.0004506
0.0004506
0
7.22e-05
0
0
27
0.0003512
0.0004506
0.0004506
0
0.0004505
0.0004506
0.0001039
0
0
32
0.000315
0.0004506
0.0004506
0
0.0004505
0.0004506
0.00014
0
0
42
-0.0002699
-0.0004505
-0.0004506
-0.0004506
0
-0.0004505
-0.0001852
0
0
22
-0.0002428
-0.0004506
-0.0004505
-0.0004506
-0.0004506
0
-0.0002123
0
0
7
-0.0002292
-0.0004506
-0.0004505
-0.0004506
-0.0004506
0
-0.0002258
0
0
12
0.0002112
0.0004505
0.0004506
0.0004506
0
0.0004505
0.0002439
0
0
2
0.0002022
0.0004505
0.0004506
0.0004506
0
0.0004505
0.0004506
0.0004506
0
0.0004505
0.0004506
0.0004506
0
0.0002574
0
0
2
0.0001886
0.0004506
0.0004505
0.0004506
0.0004506
0
0.0004505
0.0004506
0.0004506
0
0.0004505
0.0004506
0.0004506
0
0.0004505
0.0004506
0.0004506
0
0.0004505
0.0002755
0
0
2
0.0001706
0.0004505
0.0004506
0.0004506
0
0.0004505
0.0004506
0.0004506
0
0.0004505
0.0004506
0.0004505
0.0004506
0.0004506
0
0.0004505
0.0004506
0.0004506
0
0.0004505
0.0004506
0.0004506
0
0.0004505
0.0004506
0.0004506
0
0.0004505
0.0004506
0.0004506
0
0.0004505
0.0007464
0.0013517
0.0013517
2
0.0010649
0.0004506
0.0004505
0.0004506
0.0004506
0
0.0004505
0.0004506
0.0004505
0.0004506
0.0004506
0
0.0004505
0.0004506
0.0004506
0
0.0004505
0.0004506
0.0007103
0.0013517
0.0013517
2
0.001101
0.0004505
0.0004506
0.0004506
0
0.0004505
0.0004506
0.0004506
0
0.0004505
0.0004506
0.0004506
0
0.0004505
0.0004506
0.0004506
0
0.0004505
0.0004506
0.0006741
0.0013517
0.0013517
2
0.0012444
0.0009012
0.0009011
0.0009011
0
0.0009012
0.0007983
0.0004506
0.0004506
0
0.0004505
0.0004506
0.0004505
0.0004506
0.0004506
0
0.0004505
0.0004506
0.0007317
0.0018023
0.0018023
0
0.0018022
0.0018023
0.0016238
0.0009012
0.0009011
0.0009011
1
0.0008165
0.0004505
0.0004506
0.0004506
0
0.0004505
0.0004506
0.0004506
0
0.0004505
0.0004506
0.0004506
0
0.0007532
0.0022528
0.0022528
1
0.0022529
0.0020394
0.0009011
0.0009011
0
0.0009012
0.0009011
0.0009011
1
0.0009012
0.0009011
0.0009011
0
0.0009012
0.0009011
0.0009011
0
0.0009012
0.0009011
0.0010163
0.0018023
0.0018022
0.0018023
0.0018022
0.0016961
0.0009012
0.0009011
0.0009011
0
0.0009012
0.0009011
0.0009011
0
0.0009012
0.0009011
0.0009011
1
0.0009012
0.0009011
0.0009011
0
0.0009012
0.0010197
0.0022528
0.0022528
1
0.0022529
0.0021828
0.0013517
0.0013517
1
0.0013516
0.0013213
0.0009011
0.0009011
1
0.0009012
0.0009011
0.0009011
0
0.0009012
0.0009011
0.0009011
0
0.000987
0.0027034
0.0027034
0
0.0027033
0.0027034
0.0026357
0.0009011
0.0009011
0
0.0009012
0.0009011
0.0009011
1
0.0009012
0.0009011
0.0009011
0
0.0009012
0.0009011
0.0009011
0
0.0009012
0.0009011
0.0009181
0.0031539
0.003154
0.0031539
0.003154
0.0031539
0.0013562
0.0013517
0.0013517
7
0.0009113
0.0009011
0.0009011
0
0.0009012
0.0009011
0.0026447
0.0027034
0.0027033
0.0027034
0.0027034
0
0.0014093
0.0013517
0.0013517
9
0.0013516
0.0013517
0.0013517
0
0.003023
0.003154
0.0031539
0.003154
0.0031539
0.0015008
0.0013517
0.0013517
2
0.0013516
0.0013517
0.0013517
7
0.0029507
0.0031539
0.003154
0.003154
0
0.0031539
0.001573
0.0013517
0.0013517
12
0.0032601
0.0036045
0.0036045
2
0.0017187
0.0013517
0.0013517
7
0.0020879
0.0022529
0.0022528
0.0022528
1
0.0029801
0.0031539
0.003154
0.003154
0
0.0031539
0.0017176
0.0013517
0.0013517
3
0.0013516
0.0013517
0.0013517
1
0.0020518
0.0022529
0.0022528
0.0022528
1
0.002944
0.0031539
0.003154
0.0031539
0.003154
0.0021308
0.0018023
0.0018023
0
0.0018022
0.0018023
0.0018022
0.0018023
0.0018023
0
0.0018022
0.0018023
0.0014702
0.0013517
0.0013517
2
0.0029891
0.0036045
0.0036046
0.0036045
0.0036045
0
0.0023127
0.0018022
0.0018023
0.0018022
0.0018023
0.0018023
0
0.0018022
0.0018023
0.0018022
0.0018023
0.0014883
0.0013517
0.0013517
2
0.0028988
0.0036045
0.0036045
2
0.002385
0.0018022
0.0018023
0.0018023
0
0.0018022
0.0018023
0.0018022
0.0018023
0.0018023
0
0.0018022
0.0018023
0.0018022
0.0018023
0.0018023
0
0.0018022
0.0026763
0.003154
0.0031539
0.003154
0.0031539
0.0022935
0.0018023
0.0018022
0.0018023
0.0018022
0.0018023
0.0018023
0
0.0018022
0.0018023
0.0018022
0.0018023
0.0018023
0
0.0018022
0.0018023
0.0018022
0.0028954
0.0036045
0.0036045
1
0.0036046
0.0022607
0.0013517
0.0013517
6
0.0013516
0.0018712
0.0022528
0.0022528
0
0.0022529
0.0022528
0.0030184
0.0036046
0.0036045
0.0036045
1
0.0023511
0.0013517
0.0013517
3
0.0013516
0.0013517
0.0013517
1
0.001835
0.0022529
0.0022528
0.0022528
1
0.0027271
0.003154
0.003154
0
0.0031539
0.003154
0.002456
0.0018023
0.0018023
0
0.0018022
0.0018023
0.0018022
0.0018023
0.0018023
0
0.0018022
0.0018023
0.0015787
0.0013516
0.0013517
0.0013517
1
0.002228
0.003154
0.0031539
0.003154
0.0031539
0.0025103
0.0018023
0.0018022
0.0018023
0.0018023
0
0.0015922
0.0013517
0.0013517
3
0.0013516
0.0013517
0.0013517
1
0.0023567
0.0036046
0.0036045
0.0036045
1
0.0026221
0.0013517
0.0013517
9
0.0013516
0.0013517
0.0013517
0
0.0020835
0.0031539
0.003154
0.0031539
0.003154
0.0026187
0.0018022
0.0018023
0.0018023
0
0.0018022
0.0016284
0.0013517
0.0013517
4
0.0013516
0.0013517
0.0013517
0
0.0018463
0.0027034
0.0027034
2
0.0022223
0.0013517
0.0013517
12
0.0016453
0.0022528
0.0022528
2
0.0019683
0.0013517
0.0013517
7
0.0012184
0.0009011
0.0009012
0.0009011
0.0009011
0
0.0012874
0.0022528
0.0022528
2
0.0020044
0.0013517
0.0013517
2
0.001232
0.0009011
0.0009012
0.0009011
0.0009011
0
0.0009012
0.0009011
0.0009011
0
0.0009012
0.0009011
0.0012331
0.0022528
0.0022529
0.0022528
0.0022528
0
0.0019344
0.0009011
0.0009011
0
0.0009012
0.0009011
0.0009011
0
0.0009012
0.0009011
0.0009011
0
0.0009012
0.0009011
0.0009011
1
0.0009012
0.0009011
0.0010863
0.0018023
0.0018022
0.0018023
0.0018023
0
0.0016261
0.0009011
0.0009011
0
0.0009012
0.0009011
0.0008176
0.0004505
0.0004506
0.0004505
0.0004506
0.0004506
0
0.0004505
0.0004506
0.0004506
0
0.0004505
0.0006742
0.0018022
0.0018023
0.0018023
0
0.0018022
0.0015922
0.0004506
0.0004506
0
0.0004505
0.0004506
0.0004506
0
0.0004505
0.0004506
0.0004506
0
0.0004505
0.0004506
0.0004506
0
0.0004505
0.0004506
0.0004506
0
0.0005634
0.0013517
0.0013517
2
0.0012478
0.0004506
0.0004506
0
0.0004505
0.0004506
0.0004506
0
0.0004505
0.0004506
0.0004505
0.0004506
0.0004506
0
0.0004505
0.0004506
0.0004506
0
0.0004505
0.0004506
0.0004506
0
0.0004505
0.0004506
0.0004506
0
0.0004505
0.0004506
0.0004506
0
0.0004505
0.0004506
0.0004506
0
0.0004505
0.0004506
0.0004505
0.0004506
0.0004506
0
0.0004505
0.0004506
0.0004506
0
0.0004505
0.0004506
0.0004506
0
0.0004505
0.0004506
0.0004506
0
0.0004347
0
0
12
2.3e-06
0.0004505
0.0004506
0.0004506
0
0.0004505
0.0004506
-0.000446
-0.0004506
-0.0004506
0
-0.0004505
-0.0004506
-6.8e-06
0
0
7
-0.0004347
-0.0004506
-0.0004506
0
-0.0004505
-0.0004506
-2.03e-05
0
0
2
-0.0004257
-0.0004506
-0.0004506
0
-0.0004505
-0.0004506
-2.94e-05
0
0
2
-0.0008333
-0.0009012
-0.0009011
-0.0009011
0
-0.0009012
-0.0004889
-0.0004506
-0.0004505
-0.0004506
-0.0004506
0
-0.0004505
-0.0004506
-0.0004506
0
-0.0004505
-0.0004506
-0.0004506
0
-0.0004505
-0.0004506
-0.0004506
0
-0.0004505
-0.0004506
-0.0004506
0
-0.0004505
-0.0004506
-0.0004506
0
-0.0004505
-0.0004506
-0.0004505
-0.0004506
-0.0004506
0
-0.0004505
-0.0004506
-0.0004506
0
-0.0004505
-0.0004506
-0.0012207
-0.0013517
-0.0013517
7
-0.0005996
-0.0004505
-0.0004506
-0.0004506
0
-0.0004505
-0.0004506
-0.0004506
0
-0.0004505
-0.0004506
-0.0004506
0
-0.0004505
-0.0004506
-0.0004506
0
-0.0004505
-0.0004506
-0.0019005
-0.0022528
-0.0022528
0
-0.0022529
-0.0022528
-0.0011789
-0.0009011
-0.0009012
-0.0009011
-0.0009011
0
-0.0009012
-0.0009011
-0.0009011
0
-0.0009012
-0.0009011
-0.0009011
1
-0.0009012
-0.0009011
-0.0009011
0
-0.00159
-0.0018023
-0.0018022
-0.0018023
-0.0018022
-0.0014624
-0.0013517
-0.0013517
2
-0.0010163
-0.0009011
-0.0009011
0
-0.0009012
-0.0009011
-0.0009011
0
-0.0009012
-0.0009011
-0.0009011
0
-0.0009012
-0.0018801
-0.0022529
-0.0022528
-0.0022528
1
-0.0016092
-0.0013517
-0.0013517
2
-0.0010343
-0.0009012
-0.0009011
-0.0009011
0
-0.0009012
-0.0009011
-0.0009011
0
-0.0009012
-0.0009011
-0.0009011
0
-0.0024425
-0.003154
-0.003154
0
-0.0031539
-0.003154
-0.0016351
-0.0009011
-0.0009012
-0.0009011
-0.0009011
1
-0.0009012
-0.0009011
-0.0009011
0
-0.0009012
-0.0014906
-0.0018022
-0.0018023
-0.0018022
-0.0018023
-0.0023827
-0.0027034
-0.0027034
1
-0.0027033
-0.0018463
-0.0013517
-0.0013517
12
-0.0024402
-0.003154
-0.003154
0
-0.0031539
-0.003154
-0.0020834
-0.0013517
-0.0013517
7
-0.0013516
-0.0013517
-0.0013517
2
-0.0026221
-0.0036045
-0.0036045
0
-0.0036046
-0.0036045
-0.0023567
-0.0013517
-0.0013517
7
-0.0013516
-0.0013517
-0.0013517
2
-0.0025318
-0.0036045
-0.0036045
2
-0.0026786
-0.0018023
-0.0018022
-0.0018023
-0.0018022
-0.0015753
-0.0013517
-0.0013517
7
-0.0024414
-0.0036045
-0.0036045
1
-0.0036046
-0.0027508
-0.0018022
-0.0018023
-0.0018022
-0.0018023
-0.0018023
0
-0.0018022
-0.0018023
-0.0018022
-0.0018023
-0.0018023
0
-0.0018022
-0.0018023
-0.0018022
-0.0018023
-0.0024019
-0.0031539
-0.003154
-0.003154
0
-0.0031539
-0.0025679
-0.0018022
-0.0018023
-0.0018023
0
-0.0018022
-0.0018023
-0.0018022
-0.0018023
-0.0018023
0
-0.0018022
-0.0018023
-0.0018022
-0.0018023
-0.0018023
0
-0.0018022
-0.0023477
-0.003154
-0.0031539
-0.003154
-0.0031539
-0.0026221
-0.0018023
-0.0018022
-0.0018023
-0.0018022
-0.0018023
