# Pulseq sequence file
# Created by PyPulseq

[VERSION]
major 1
minor 4
revision 2

[DEFINITIONS]
AdcRasterTime 1e-07 
BlockDurationRaster 1e-05 
GradientRasterTime 1e-05 
Name MiniFLASH.seq 
RadiofrequencyRasterTime 5e-06 
TotalDuration 2.56 

# Format of blocks:
# NUM DUR RF  GX  GY  GZ  ADC  EXT
[BLOCKS]
  1 314   1   1   2   3  0  1
  2 1054   0   4   5   6  1  0
  3 946   2   7   8   9  0  2
  4 1054   0   4  10   6  2  0
  5 946   3   7  11   9  0  2
  6 1054   0   4  12   6  3  0
  7 946   4   7  13   9  0  2
  8 1054   0   4  14   6  4  0
  9 946   5   7  15   9  0  2
 10 1054   0   4  16   6  5  0
 11 946   6   7  17   9  0  2
 12 1054   0   4  18   6  6  0
 13 946   7   7  19   9  0  2
 14 1054   0   4  20   6  7  0
 15 946   8   7  21   9  0  2
 16 1054   0   4  22   6  8  0
 17 946   9   7  23   9  0  2
 18 1054   0   4  24   6  9  0
 19 946  10   7  25   9  0  2
 20 1054   0   4  26   6 10  0
 21 946  11   7  27   9  0  2
 22 1054   0   4  28   6 11  0
 23 946  12   7  29   9  0  2
 24 1054   0   4  30   6 12  0
 25 946  13   7  31   9  0  2
 26 1054   0   4  32   6 13  0
 27 946  14   7  33   9  0  2
 28 1054   0   4  34   6 14  0
 29 946  15   7  35   9  0  2
 30 1054   0   4  36   6 15  0
 31 946  16   7  37   9  0  2
 32 1054   0   4  38   6 16  0
 33 946  17   7  39   9  0  2
 34 1054   0   4  40   6 17  0
 35 946  18   7  41   9  0  2
 36 1054   0   4  42   6 18  0
 37 946  19   7  43   9  0  2
 38 1054   0   4  44   6 19  0
 39 946  20   7  45   9  0  2
 40 1054   0   4  46   6 20  0
 41 946  21   7  47   9  0  2
 42 1054   0   4  48   6 21  0
 43 946  22   7  49   9  0  2
 44 1054   0   4  50   6 22  0
 45 946  23   7  51   9  0  2
 46 1054   0   4  52   6 23  0
 47 946  24   7  53   9  0  2
 48 1054   0   4  54   6 24  0
 49 946  25   7  55   9  0  2
 50 1054   0   4  56   6 25  0
 51 946  26   7  57   9  0  2
 52 1054   0   4  58   6 26  0
 53 946  27   7  59   9  0  2
 54 1054   0   4  60   6 27  0
 55 946  28   7  61   9  0  2
 56 1054   0   4  62   6 28  0
 57 946  29   7  63   9  0  2
 58 1054   0   4  64   6 29  0
 59 946  30   7  65   9  0  2
 60 1054   0   4  66   6 30  0
 61 946  31   7  67   9  0  2
 62 1054   0   4  68   6 31  0
 63 946  32   7  69   9  0  2
 64 1054   0   4  70   6 32  0
 65 946  33   7  71   9  0  2
 66 1054   0   4  72   6 33  0
 67 946  34   7  73   9  0  2
 68 1054   0   4  74   6 34  0
 69 946  35   7  75   9  0  2
 70 1054   0   4  76   6 35  0
 71 946  36   7  77   9  0  2
 72 1054   0   4  78   6 36  0
 73 946  37   7  79   9  0  2
 74 1054   0   4  80   6 37  0
 75 946  38   7  81   9  0  2
 76 1054   0   4  82   6 38  0
 77 946  39   7  83   9  0  2
 78 1054   0   4  84   6 39  0
 79 946  40   7  85   9  0  2
 80 1054   0   4  86   6 40  0
 81 946  41   7  87   9  0  2
 82 1054   0   4  88   6 41  0
 83 946  42   7  89   9  0  2
 84 1054   0   4  90   6 42  0
 85 946  43   7  91   9  0  2
 86 1054   0   4  92   6 43  0
 87 946  44   7  93   9  0  2
 88 1054   0   4  94   6 44  0
 89 946  45   7  95   9  0  2
 90 1054   0   4  96   6 45  0
 91 946  46   7  97   9  0  2
 92 1054   0   4  98   6 46  0
 93 946  47   7  99   9  0  2
 94 1054   0   4 100   6 47  0
 95 946  48   7 101   9  0  2
 96 1054   0   4 102   6 48  0
 97 946  49   7 103   9  0  2
 98 1054   0   4 104   6 49  0
 99 946  50   7 105   9  0  2
100 1054   0   4 106   6 50  0
101 946  51   7 107   9  0  2
102 1054   0   4 108   6 51  0
103 946  52   7 109   9  0  2
104 1054   0   4 110   6 52  0
105 946  53   7 111   9  0  2
106 1054   0   4 112   6 53  0
107 946  54   7 113   9  0  2
108 1054   0   4 114   6 54  0
109 946  55   7 115   9  0  2
110 1054   0   4 116   6 55  0
111 946  56   7 117   9  0  2
112 1054   0   4 118   6 56  0
113 946  57   7 119   9  0  2
114 1054   0   4 120   6 57  0
115 946  58   7 121   9  0  2
116 1054   0   4 122   6 58  0
117 946  59   7 123   9  0  2
118 1054   0   4 124   6 59  0
119 946  60   7 125   9  0  2
120 1054   0   4 126   6 60  0
121 946  61   7 127   9  0  2
122 1054   0   4 128   6 61  0
123 946  62   7 129   9  0  2
124 1054   0   4 130   6 62  0
125 946  63   7 131   9  0  2
126 1054   0   4 132   6 63  0
127 946  64   7 133   9  0  2
128 1054   0   4 134   6 64  0
129 946  65   7 135   9  0  2
130 1054   0   4 136   6 65  0
131 946  66   7 137   9  0  2
132 1054   0   4 138   6 66  0
133 946  67   7 139   9  0  2
134 1054   0   4 140   6 67  0
135 946  68   7 141   9  0  2
136 1054   0   4 142   6 68  0
137 946  69   7 143   9  0  2
138 1054   0   4 144   6 69  0
139 946  70   7 145   9  0  2
140 1054   0   4 146   6 70  0
141 946  71   7 147   9  0  2
142 1054   0   4 148   6 71  0
143 946  72   7 149   9  0  2
144 1054   0   4 150   6 72  0
145 946  73   7 151   9  0  2
146 1054   0   4 152   6 73  0
147 946  74   7 153   9  0  2
148 1054   0   4 154   6 74  0
149 946  75   7 155   9  0  2
150 1054   0   4 156   6 75  0
151 946  76   7 157   9  0  2
152 1054   0   4 158   6 76  0
153 946  77   7 159   9  0  2
154 1054   0   4 160   6 77  0
155 946  78   7 161   9  0  2
156 1054   0   4 162   6 78  0
157 946  79   7 163   9  0  2
158 1054   0   4 164   6 79  0
159 946  80   7 165   9  0  2
160 1054   0   4 166   6 80  0
161 946  81   7 167   9  0  2
162 1054   0   4 168   6 81  0
163 946  82   7 169   9  0  2
164 1054   0   4 170   6 82  0
165 946  83   7 171   9  0  2
166 1054   0   4 172   6 83  0
167 946  84   7 173   9  0  2
168 1054   0   4 174   6 84  0
169 946  85   7 175   9  0  2
170 1054   0   4 176   6 85  0
171 946  86   7 177   9  0  2
172 1054   0   4 178   6 86  0
173 946  87   7 179   9  0  2
174 1054   0   4 180   6 87  0
175 946  88   7 181   9  0  2
176 1054   0   4 182   6 88  0
177 946  89   7 183   9  0  2
178 1054   0   4 184   6 89  0
179 946  90   7 185   9  0  2
180 1054   0   4 186   6 90  0
181 946  91   7 187   9  0  2
182 1054   0   4 188   6 91  0
183 946  92   7 189   9  0  2
184 1054   0   4 190   6 92  0
185 946  93   7 191   9  0  2
186 1054   0   4 192   6 93  0
187 946  94   7 193   9  0  2
188 1054   0   4 194   6 94  0
189 946  95   7 195   9  0  2
190 1054   0   4 196   6 95  0
191 946  96   7 197   9  0  2
192 1054   0   4 198   6 96  0
193 946  97   7 199   9  0  2
194 1054   0   4 200   6 97  0
195 946  98   7 201   9  0  2
196 1054   0   4 202   6 98  0
197 946  99   7 203   9  0  2
198 1054   0   4 204   6 99  0
199 946 100   7 205   9  0  2
200 1054   0   4 206   6 100  0
201 946 101   7 207   9  0  2
202 1054   0   4 208   6 101  0
203 946 102   7 209   9  0  2
204 1054   0   4 210   6 102  0
205 946 103   7 211   9  0  2
206 1054   0   4 212   6 103  0
207 946 104   7 213   9  0  2
208 1054   0   4 214   6 104  0
209 946 105   7 215   9  0  2
210 1054   0   4 216   6 105  0
211 946 106   7 217   9  0  2
212 1054   0   4 218   6 106  0
213 946 107   7 219   9  0  2
214 1054   0   4 220   6 107  0
215 946 108   7 221   9  0  2
216 1054   0   4 222   6 108  0
217 946 109   7 223   9  0  2
218 1054   0   4 224   6 109  0
219 946 110   7 225   9  0  2
220 1054   0   4 226   6 110  0
221 946 111   7 227   9  0  2
222 1054   0   4 228   6 111  0
223 946 112   7 229   9  0  2
224 1054   0   4 230   6 112  0
225 946 113   7 231   9  0  2
226 1054   0   4 232   6 113  0
227 946 114   7 233   9  0  2
228 1054   0   4 234   6 114  0
229 946 115   7 235   9  0  2
230 1054   0   4 236   6 115  0
231 946 116   7 237   9  0  2
232 1054   0   4 238   6 116  0
233 946 117   7 239   9  0  2
234 1054   0   4 240   6 117  0
235 946 118   7 241   9  0  2
236 1054   0   4 242   6 118  0
237 946 119   7 243   9  0  2
238 1054   0   4 244   6 119  0
239 946 120   7 245   9  0  2
240 1054   0   4 246   6 120  0
241 946 121   7 247   9  0  2
242 1054   0   4 248   6 121  0
243 946 122   7 249   9  0  2
244 1054   0   4 250   6 122  0
245 946 123   7 251   9  0  2
246 1054   0   4 252   6 123  0
247 946 124   7 253   9  0  2
248 1054   0   4 254   6 124  0
249 946 125   7 255   9  0  2
250 1054   0   4 256   6 125  0
251 946 126   7 257   9  0  2
252 1054   0   4 258   6 126  0
253 946 127   7 259   9  0  2
254 1054   0   4 260   6 127  0
255 946 128   7 261   9  0  2
256 1686   0   4 262   6 128  0

# Format of RF events:
# id amplitude mag_id phase_id time_shape_id delay freq phase
# ..        Hz   ....     ....          ....    us   Hz   rad
[RF]
1      46.3027 1 2 0 100 0 13.09
2      46.3027 1 2 0 6420 0 18.326
3      46.3027 1 2 0 6420 0 24.4346
4      46.3027 1 2 0 6420 0 31.4159
5      46.3027 1 2 0 6420 0 39.2699
6      46.3027 1 2 0 6420 0 47.9966
7      46.3027 1 2 0 6420 0 57.5959
8      46.3027 1 2 0 6420 0 68.0678
9      46.3027 1 2 0 6420 0 79.4125
10      46.3027 1 2 0 6420 0 91.6298
11      46.3027 1 2 0 6420 0 104.72
12      46.3027 1 2 0 6420 0 118.682
13      46.3027 1 2 0 6420 0 133.518
14      46.3027 1 2 0 6420 0 149.226
15      46.3027 1 2 0 6420 0 165.806
16      46.3027 1 2 0 6420 0 183.26
17      46.3027 1 2 0 6420 0 201.586
18      46.3027 1 2 0 6420 0 220.784
19      46.3027 1 2 0 6420 0 240.855
20      46.3027 1 2 0 6420 0 261.799
21      46.3027 1 2 0 6420 0 283.616
22      46.3027 1 2 0 6420 0 306.305
23      46.3027 1 2 0 6420 0 329.867
24      46.3027 1 2 0 6420 0 354.302
25      46.3027 1 2 0 6420 0 379.609
26      46.3027 1 2 0 6420 0 405.789
27      46.3027 1 2 0 6420 0 432.842
28      46.3027 1 2 0 6420 0 460.767
29      46.3027 1 2 0 6420 0 489.565
30      46.3027 1 2 0 6420 0 519.235
31      46.3027 1 2 0 6420 0 549.779
32      46.3027 1 2 0 6420 0 581.195
33      46.3027 1 2 0 6420 0 613.483
34      46.3027 1 2 0 6420 0 646.644
35      46.3027 1 2 0 6420 0 680.678
36      46.3027 1 2 0 6420 0 715.585
37      46.3027 1 2 0 6420 0 751.364
38      46.3027 1 2 0 6420 0 788.016
39      46.3027 1 2 0 6420 0 825.541
40      46.3027 1 2 0 6420 0 863.938
41      46.3027 1 2 0 6420 0 903.208
42      46.3027 1 2 0 6420 0 943.35
43      46.3027 1 2 0 6420 0 984.366
44      46.3027 1 2 0 6420 0 1026.25
45      46.3027 1 2 0 6420 0 1069.01
46      46.3027 1 2 0 6420 0 1112.65
47      46.3027 1 2 0 6420 0 1157.15
48      46.3027 1 2 0 6420 0 1202.53
49      46.3027 1 2 0 6420 0 1248.78
50      46.3027 1 2 0 6420 0 1295.91
51      46.3027 1 2 0 6420 0 1343.9
52      46.3027 1 2 0 6420 0 1392.77
53      46.3027 1 2 0 6420 0 1442.51
54      46.3027 1 2 0 6420 0 1493.13
55      46.3027 1 2 0 6420 0 1544.62
56      46.3027 1 2 0 6420 0 1596.98
57      46.3027 1 2 0 6420 0 1650.21
58      46.3027 1 2 0 6420 0 1704.31
59      46.3027 1 2 0 6420 0 1759.29
60      46.3027 1 2 0 6420 0 1815.14
61      46.3027 1 2 0 6420 0 1871.87
62      46.3027 1 2 0 6420 0 1929.46
63      46.3027 1 2 0 6420 0 1987.93
64      46.3027 1 2 0 6420 0 2047.27
65      46.3027 1 2 0 6420 0 2107.49
66      46.3027 1 2 0 6420 0 2168.57
67      46.3027 1 2 0 6420 0 2230.53
68      46.3027 1 2 0 6420 0 2293.36
69      46.3027 1 2 0 6420 0 2357.07
70      46.3027 1 2 0 6420 0 2421.64
71      46.3027 1 2 0 6420 0 2487.09
72      46.3027 1 2 0 6420 0 2553.42
73      46.3027 1 2 0 6420 0 2620.61
74      46.3027 1 2 0 6420 0 2688.68
75      46.3027 1 2 0 6420 0 2757.62
76      46.3027 1 2 0 6420 0 2827.43
77      46.3027 1 2 0 6420 0 2898.12
78      46.3027 1 2 0 6420 0 2969.68
79      46.3027 1 2 0 6420 0 3042.11
80      46.3027 1 2 0 6420 0 3115.41
81      46.3027 1 2 0 6420 0 3189.59
82      46.3027 1 2 0 6420 0 3264.64
83      46.3027 1 2 0 6420 0 3340.56
84      46.3027 1 2 0 6420 0 3417.35
85      46.3027 1 2 0 6420 0 3495.02
86      46.3027 1 2 0 6420 0 3573.56
87      46.3027 1 2 0 6420 0 3652.97
88      46.3027 1 2 0 6420 0 3733.26
89      46.3027 1 2 0 6420 0 3814.42
90      46.3027 1 2 0 6420 0 3896.45
91      46.3027 1 2 0 6420 0 3979.35
92      46.3027 1 2 0 6420 0 4063.13
93      46.3027 1 2 0 6420 0 4147.77
94      46.3027 1 2 0 6420 0 4233.3
95      46.3027 1 2 0 6420 0 4319.69
96      46.3027 1 2 0 6420 0 4406.96
97      46.3027 1 2 0 6420 0 4495.1
98      46.3027 1 2 0 6420 0 4584.11
99      46.3027 1 2 0 6420 0 4673.99
100      46.3027 1 2 0 6420 0 4764.75
101      46.3027 1 2 0 6420 0 4856.38
102      46.3027 1 2 0 6420 0 4948.88
103      46.3027 1 2 0 6420 0 5042.26
104      46.3027 1 2 0 6420 0 5136.5
105      46.3027 1 2 0 6420 0 5231.62
106      46.3027 1 2 0 6420 0 5327.62
107      46.3027 1 2 0 6420 0 5424.48
108      46.3027 1 2 0 6420 0 5522.22
109      46.3027 1 2 0 6420 0 5620.83
110      46.3027 1 2 0 6420 0 5720.32
111      46.3027 1 2 0 6420 0 5820.67
112      46.3027 1 2 0 6420 0 5921.9
113      46.3027 1 2 0 6420 0 6024
114      46.3027 1 2 0 6420 0 6126.98
115      46.3027 1 2 0 6420 0 6230.83
116      46.3027 1 2 0 6420 0 52.3599
117      46.3027 1 2 0 6420 0 157.952
118      46.3027 1 2 0 6420 0 264.417
119      46.3027 1 2 0 6420 0 371.755
120      46.3027 1 2 0 6420 0 479.966
121      46.3027 1 2 0 6420 0 589.049
122      46.3027 1 2 0 6420 0 699.004
123      46.3027 1 2 0 6420 0 809.833
124      46.3027 1 2 0 6420 0 921.534
125      46.3027 1 2 0 6420 0 1034.11
126      46.3027 1 2 0 6420 0 1147.55
127      46.3027 1 2 0 6420 0 1261.87
128      46.3027 1 2 0 6420 0 1377.06

# Format of arbitrary gradients:
#   time_shape_id of 0 means default timing (stepping with grad_raster starting at 1/2 of grad_raster)
# id amplitude amp_shape_id time_shape_id delay
# ..      Hz/m       ..         ..          us
[GRADIENTS]
1  1.29841e+06 3 0 0
2  1.29168e+06 4 0 0
3 -1.43772e+06 5 0 0
4      -111112 6 0 6300
5 -1.29168e+06 7 0 6300
6 -1.43772e+06 8 0 6300
7  1.29841e+06 3 0 6320
8   1.2715e+06 9 0 6320
9 -1.43772e+06 5 0 6320
10  -1.2715e+06 10 0 6300
11  1.25131e+06 11 0 6320
12 -1.25131e+06 12 0 6300
13  1.23113e+06 13 0 6320
14 -1.23113e+06 14 0 6300
15  1.21095e+06 15 0 6320
16 -1.21095e+06 16 0 6300
17  1.19077e+06 17 0 6320
18 -1.19077e+06 18 0 6300
19  1.17058e+06 19 0 6320
20 -1.17058e+06 20 0 6300
21   1.1504e+06 21 0 6320
22  -1.1504e+06 22 0 6300
23  1.13022e+06 23 0 6320
24 -1.13022e+06 24 0 6300
25  1.11004e+06 25 0 6320
26 -1.11004e+06 26 0 6300
27  1.08985e+06 27 0 6320
28 -1.08985e+06 28 0 6300
29  1.06967e+06 29 0 6320
30 -1.06967e+06 30 0 6300
31  1.04949e+06 31 0 6320
32 -1.04949e+06 32 0 6300
33  1.02931e+06 33 0 6320
34 -1.02931e+06 34 0 6300
35  1.00912e+06 35 0 6320
36 -1.00912e+06 36 0 6300
37       988942 37 0 6320
38      -988942 38 0 6300
39       968760 39 0 6320
40      -968760 40 0 6300
41       948577 41 0 6320
42      -948577 42 0 6300
43       928395 43 0 6320
44      -928395 44 0 6300
45       908212 45 0 6320
46      -908212 46 0 6300
47       888030 47 0 6320
48      -888030 48 0 6300
49       867847 49 0 6320
50      -867847 50 0 6300
51       847665 51 0 6320
52      -847665 52 0 6300
53       827482 53 0 6320
54      -827482 54 0 6300
55       807300 55 0 6320
56      -807300 56 0 6300
57       787117 57 0 6320
58      -787117 58 0 6300
59       766935 59 0 6320
60      -766935 60 0 6300
61       746752 61 0 6320
62      -746752 62 0 6300
63       726570 63 0 6320
64      -726570 64 0 6300
65       706387 65 0 6320
66      -706387 66 0 6300
67       686205 67 0 6320
68      -686205 68 0 6300
69       666022 69 0 6320
70      -666022 70 0 6300
71       645840 71 0 6320
72      -645840 72 0 6300
73       625657 73 0 6320
74      -625657 74 0 6300
75       605475 75 0 6320
76      -605475 76 0 6300
77       585292 77 0 6320
78      -585292 78 0 6300
79       565110 79 0 6320
80      -565110 80 0 6300
81       544927 81 0 6320
82      -544927 82 0 6300
83       524745 83 0 6320
84      -524745 84 0 6300
85       504562 85 0 6320
86      -504562 86 0 6300
87       484380 87 0 6320
88      -484380 88 0 6300
89       464197 3 0 6320
90      -464197 89 0 6300
91       444015 90 0 6320
92      -444015 91 0 6300
93       423832 92 0 6320
94      -423832 93 0 6300
95       403650 94 0 6320
96      -403650 95 0 6300
97       383467 96 0 6320
98      -383467 97 0 6300
99       363285 98 0 6320
100      -363285 99 0 6300
101       343102 100 0 6320
102      -343102 101 0 6300
103       322920 102 0 6320
104      -322920 103 0 6300
105       302737 104 0 6320
106      -302737 105 0 6300
107       282555 106 0 6320
108      -282555 107 0 6300
109       262372 108 0 6320
110      -262372 109 0 6300
111       242190 110 0 6320
112      -242190 111 0 6300
113       222007 112 0 6320
114      -222007 113 0 6300
115       201825 114 0 6320
116      -201825 115 0 6300
117       181642 116 0 6320
118      -181642 117 0 6300
119       161460 118 0 6320
120      -161460 119 0 6300
121       141277 120 0 6320
122      -141277 121 0 6300
123       121095 122 0 6320
124      -121095 123 0 6300
125       100912 124 0 6320
126      -100912 125 0 6300
127        80730 126 0 6320
128       -80730 127 0 6300
129      60547.5 128 0 6320
130     -60547.5 129 0 6300
131        40365 130 0 6320
132       -40365 131 0 6300
133      20182.5 132 0 6320
134     -20182.5 133 0 6300
135            0 134 0 6320
136            0 135 0 6300
137     -20182.5 132 0 6320
138      20182.5 133 0 6300
139       -40365 130 0 6320
140        40365 131 0 6300
141     -60547.5 128 0 6320
142      60547.5 129 0 6300
143       -80730 126 0 6320
144        80730 127 0 6300
145      -100912 124 0 6320
146       100912 125 0 6300
147      -121095 122 0 6320
148       121095 123 0 6300
149      -141277 120 0 6320
150       141277 121 0 6300
151      -161460 118 0 6320
152       161460 119 0 6300
153      -181642 116 0 6320
154       181642 117 0 6300
155      -201825 114 0 6320
156       201825 115 0 6300
157      -222007 112 0 6320
158       222007 113 0 6300
159      -242190 110 0 6320
160       242190 111 0 6300
161      -262372 108 0 6320
162       262372 109 0 6300
163      -282555 106 0 6320
164       282555 107 0 6300
165      -302737 104 0 6320
166       302737 105 0 6300
167      -322920 102 0 6320
168       322920 103 0 6300
169      -343102 100 0 6320
170       343102 101 0 6300
171      -363285 98 0 6320
172       363285 99 0 6300
173      -383467 96 0 6320
174       383467 97 0 6300
175      -403650 94 0 6320
176       403650 95 0 6300
177      -423832 92 0 6320
178       423832 93 0 6300
179      -444015 90 0 6320
180       444015 91 0 6300
181      -464197 3 0 6320
182       464197 89 0 6300
183      -484380 87 0 6320
184       484380 88 0 6300
185      -504562 85 0 6320
186       504562 86 0 6300
187      -524745 83 0 6320
188       524745 84 0 6300
189      -544927 81 0 6320
190       544927 82 0 6300
191      -565110 79 0 6320
192       565110 80 0 6300
193      -585292 77 0 6320
194       585292 78 0 6300
195      -605475 75 0 6320
196       605475 76 0 6300
197      -625657 73 0 6320
198       625657 74 0 6300
199      -645840 71 0 6320
200       645840 72 0 6300
201      -666022 69 0 6320
202       666022 70 0 6300
203      -686205 67 0 6320
204       686205 68 0 6300
205      -706387 65 0 6320
206       706387 66 0 6300
207      -726570 63 0 6320
208       726570 64 0 6300
209      -746752 61 0 6320
210       746752 62 0 6300
211      -766935 59 0 6320
212       766935 60 0 6300
213      -787117 57 0 6320
214       787117 58 0 6300
215      -807300 55 0 6320
216       807300 56 0 6300
217      -827482 53 0 6320
218       827482 54 0 6300
219      -847665 51 0 6320
220       847665 52 0 6300
221      -867847 49 0 6320
222       867847 50 0 6300
223      -888030 47 0 6320
224       888030 48 0 6300
225      -908212 45 0 6320
226       908212 46 0 6300
227      -928395 43 0 6320
228       928395 44 0 6300
229      -948577 41 0 6320
230       948577 42 0 6300
231      -968760 39 0 6320
232       968760 40 0 6300
233      -988942 37 0 6320
234       988942 38 0 6300
235 -1.00912e+06 35 0 6320
236  1.00912e+06 36 0 6300
237 -1.02931e+06 33 0 6320
238  1.02931e+06 34 0 6300
239 -1.04949e+06 31 0 6320
240  1.04949e+06 32 0 6300
241 -1.06967e+06 29 0 6320
242  1.06967e+06 30 0 6300
243 -1.08985e+06 27 0 6320
244  1.08985e+06 28 0 6300
245 -1.11004e+06 25 0 6320
246  1.11004e+06 26 0 6300
247 -1.13022e+06 23 0 6320
248  1.13022e+06 24 0 6300
249  -1.1504e+06 21 0 6320
250   1.1504e+06 22 0 6300
251 -1.17058e+06 19 0 6320
252  1.17058e+06 20 0 6300
253 -1.19077e+06 17 0 6320
254  1.19077e+06 18 0 6300
255 -1.21095e+06 15 0 6320
256  1.21095e+06 16 0 6300
257 -1.23113e+06 13 0 6320
258  1.23113e+06 14 0 6300
259 -1.25131e+06 11 0 6320
260  1.25131e+06 12 0 6300
261  -1.2715e+06 9 0 6320
262   1.2715e+06 10 0 6300

# Format of ADC events:
# id num dwell delay freq phase
# ..  ..    ns    us   Hz   rad
[ADC]
1 256 15000 6320 0 13.09
2 256 15000 6320 0 18.326
3 256 15000 6320 0 24.4346
4 256 15000 6320 0 31.4159
5 256 15000 6320 0 39.2699
6 256 15000 6320 0 47.9966
7 256 15000 6320 0 57.5959
8 256 15000 6320 0 68.0678
9 256 15000 6320 0 79.4125
10 256 15000 6320 0 91.6298
11 256 15000 6320 0 104.72
12 256 15000 6320 0 118.682
13 256 15000 6320 0 133.518
14 256 15000 6320 0 149.226
15 256 15000 6320 0 165.806
16 256 15000 6320 0 183.26
17 256 15000 6320 0 201.586
18 256 15000 6320 0 220.784
19 256 15000 6320 0 240.855
20 256 15000 6320 0 261.799
21 256 15000 6320 0 283.616
22 256 15000 6320 0 306.305
23 256 15000 6320 0 329.867
24 256 15000 6320 0 354.302
25 256 15000 6320 0 379.609
26 256 15000 6320 0 405.789
27 256 15000 6320 0 432.842
28 256 15000 6320 0 460.767
29 256 15000 6320 0 489.565
30 256 15000 6320 0 519.235
31 256 15000 6320 0 549.779
32 256 15000 6320 0 581.195
33 256 15000 6320 0 613.483
34 256 15000 6320 0 646.644
35 256 15000 6320 0 680.678
36 256 15000 6320 0 715.585
37 256 15000 6320 0 751.364
38 256 15000 6320 0 788.016
39 256 15000 6320 0 825.541
40 256 15000 6320 0 863.938
41 256 15000 6320 0 903.208
42 256 15000 6320 0 943.35
43 256 15000 6320 0 984.366
44 256 15000 6320 0 1026.25
45 256 15000 6320 0 1069.01
46 256 15000 6320 0 1112.65
47 256 15000 6320 0 1157.15
48 256 15000 6320 0 1202.53
49 256 15000 6320 0 1248.78
50 256 15000 6320 0 1295.91
51 256 15000 6320 0 1343.9
52 256 15000 6320 0 1392.77
53 256 15000 6320 0 1442.51
54 256 15000 6320 0 1493.13
55 256 15000 6320 0 1544.62
56 256 15000 6320 0 1596.98
57 256 15000 6320 0 1650.21
58 256 15000 6320 0 1704.31
59 256 15000 6320 0 1759.29
60 256 15000 6320 0 1815.14
61 256 15000 6320 0 1871.87
62 256 15000 6320 0 1929.46
63 256 15000 6320 0 1987.93
64 256 15000 6320 0 2047.27
65 256 15000 6320 0 2107.49
66 256 15000 6320 0 2168.57
67 256 15000 6320 0 2230.53
68 256 15000 6320 0 2293.36
69 256 15000 6320 0 2357.07
70 256 15000 6320 0 2421.64
71 256 15000 6320 0 2487.09
72 256 15000 6320 0 2553.42
73 256 15000 6320 0 2620.61
74 256 15000 6320 0 2688.68
75 256 15000 6320 0 2757.62
76 256 15000 6320 0 2827.43
77 256 15000 6320 0 2898.12
78 256 15000 6320 0 2969.68
79 256 15000 6320 0 3042.11
80 256 15000 6320 0 3115.41
81 256 15000 6320 0 3189.59
82 256 15000 6320 0 3264.64
83 256 15000 6320 0 3340.56
84 256 15000 6320 0 3417.35
85 256 15000 6320 0 3495.02
86 256 15000 6320 0 3573.56
87 256 15000 6320 0 3652.97
88 256 15000 6320 0 3733.26
89 256 15000 6320 0 3814.42
90 256 15000 6320 0 3896.45
91 256 15000 6320 0 3979.35
92 256 15000 6320 0 4063.13
93 256 15000 6320 0 4147.77
94 256 15000 6320 0 4233.3
95 256 15000 6320 0 4319.69
96 256 15000 6320 0 4406.96
97 256 15000 6320 0 4495.1
98 256 15000 6320 0 4584.11
99 256 15000 6320 0 4673.99
100 256 15000 6320 0 4764.75
101 256 15000 6320 0 4856.38
102 256 15000 6320 0 4948.88
103 256 15000 6320 0 5042.26
104 256 15000 6320 0 5136.5
105 256 15000 6320 0 5231.62
106 256 15000 6320 0 5327.62
107 256 15000 6320 0 5424.48
108 256 15000 6320 0 5522.22
109 256 15000 6320 0 5620.83
110 256 15000 6320 0 5720.32
111 256 15000 6320 0 5820.67
112 256 15000 6320 0 5921.9
113 256 15000 6320 0 6024
114 256 15000 6320 0 6126.98
115 256 15000 6320 0 6230.83
116 256 15000 6320 0 52.3599
117 256 15000 6320 0 157.952
118 256 15000 6320 0 264.417
119 256 15000 6320 0 371.755
120 256 15000 6320 0 479.966
121 256 15000 6320 0 589.049
122 256 15000 6320 0 699.004
123 256 15000 6320 0 809.833
124 256 15000 6320 0 921.534
125 256 15000 6320 0 1034.11
126 256 15000 6320 0 1147.55
127 256 15000 6320 0 1261.87
128 256 15000 6320 0 1377.06

# Format of extension lists:
# id type ref next_id
# next_id of 0 terminates the list
# Extension list is followed by extension specifications
[EXTENSIONS]
1 1 1 0
2 1 2 0

# Extension specification for digital output and input triggers:
# id type channel delay (us) duration (us)
extension TRIGGERS 1
1 1 1 0 10
2 1 1 6320 10

# Sequence Shapes
[SHAPES]

shape_id 1
num_samples 512
0
0
30
0.0048309
0
0
21
-0.0048309
0
0
13
0.0048309
0
0
1
0.0048309
0
0
1
0.0096619
0
0
1
0.0048309
0
0
1
0.0096618
0
0
1
0.0144928
0
0
1
0.0096618
0
0
1
0.0144928
0
0
1
0.0144927
0
0
1
0.0193237
0
0
1
0.0144927
0
0
1
0.0241546
0
0
1
0.0193237
0
0
1
0.0241546
0
0
1
0.0241546
0
0
1
0.0241546
0
0
1
0.0289855
0
0
1
0.0289855
0
0
1
0.0289855
0
0
1
0.0289855
0
0
1
0.0338164
0
0
1
0.0289855
0
0
1
0.0338165
0
0
1
0.0338164
0
0
1
0.0338164
0
0
1
0.0338164
0
0
1
0.0338165
0
0
1
0.0338164
0
0
1
0.0338164
0
0
1
0.0338164
0
0
1
0.0338165
0
0
1
0.0289855
0
0
1
0.0289855
0
0
1
0.0289855
0
0
1
0.0289855
0
0
1
0.0241546
0
0
1
0.0241546
0
0
1
0.0241546
0
0
1
0.0193236
0
0
1
0.0193237
0
0
1
0.0144928
0
0
1
0.0144927
0
0
1
0.0096618
0
0
1
0.004831
0
0
1
0.0096618
0
0
13
-0.0096618
0
0
1
-0.004831
0
0
1
-0.0096618
0
0
1
-0.0144927
0
0
1
-0.0144928
0
0
1
-0.0193237
0
0
1
-0.0193236
0
0
1
-0.0241546
0
0
1
-0.0241546
0
0
1
-0.0241546
0
0
1
-0.0289855
0
0
1
-0.0289855
0
0
1
-0.0289855
0
0
1
-0.0289855
0
0
1
-0.0338165
0
0
1
-0.0338164
0
0
1
-0.0338164
0
0
1
-0.0338164
0
0
1
-0.0338165
0
0
1
-0.0338164
0
0
1
-0.0338164
0
0
1
-0.0338164
0
0
1
-0.0338165
0
0
1
-0.0289855
0
0
1
-0.0338164
0
0
1
-0.0289855
0
0
1
-0.0289855
0
0
1
-0.0289855
0
0
1
-0.0289855
0
0
1
-0.0241546
0
0
1
-0.0241546
0
0
1
-0.0241546
0
0
1
-0.0193237
0
0
1
-0.0241546
0
0
1
-0.0144927
0
0
1
-0.0193237
0
0
1
-0.0144927
0
0
1
-0.0144928
0
0
1
-0.0096618
0
0
1
-0.0144928
0
0
1
-0.0096618
0
0
1
-0.0048309
0
0
1
-0.0096619
0
0
1
-0.0048309
0
0
1
-0.0048309
0
0
13
0.0048309
0
0
21
-0.0048309
0
0
29

shape_id 2
num_samples 512
0
0
6
0.5
0
0
53
-0.5
0
0
381
0.5
0
0
53
-0.5
0
0
5

shape_id 3
num_samples 314
0
0
264
0.0322581
0.0645161
0.0645161
0
0.0645162
0.0645161
0.0645161
1
0.0645162
0.0645161
0.0645161
0
0.0645162
0.0645161
0.0645161
1
0.0645162
0.0645161
0
-0.0645161
-0.0645162
-0.0645161
-0.0645161
1
-0.0645162
-0.0645161
-0.0645161
0
-0.0645162
-0.0645161
-0.0645161
1
-0.0645162
-0.0645161
-0.0645161
0
-0.0322581
0
0
13

shape_id 4
num_samples 314
0
0
264
0.032258
0.0645162
0.0645161
0.0645161
2
0.0645162
0.0645161
0.0645162
0.0645161
0.0645161
2
0.0645162
0.0645161
0.0645161
0
1e-07
-0.0645161
-0.0645162
-0.0645161
-0.0645161
1
-0.0645162
-0.0645161
-0.0645161
1
-0.0645162
-0.0645161
-0.0645161
1
-0.0645162
-0.0645161
-0.0322581
0
0
13

shape_id 5
num_samples 314
0.0073359
0.0146718
0.0146718
1
0.0146719
0.0146718
0.0146718
3
0.0073359
0
0
253
-0.0073359
-0.0146718
-0.0146718
6
-0.0146719
-0.0343629
-0.0540541
-0.054054
-0.054054
0
-0.0540541
-0.0540541
0
-0.054054
-0.0540541
-0.054054
-0.0540541
-0.0540541
0
-0.054054
-0.054054
0
-0.0540541
-0.0540541
0
-0.054054
-0.0540541
-0.054054
-0.0540541
0
0.0540541
0.054054
0.0540541
0.054054
0.0540541
0.054054
0.0540541
0.0540541
0
0.054054
0.054054
0
0.0540541
0.0540541
1
0.054054
0.054054
0
0.0540541
0.0540541
0
0.054054

shape_id 6
num_samples 424
0.2499998
0.5
0.2500002
0
0
381
-0.2500002
-0.5
-0.2499998
0
0
33

shape_id 7
num_samples 424
0
0
384
0.032258
0.0645162
0.0645161
0.0645161
0
0.0645162
0.0645161
0.0645161
1
0.0645162
0.0645161
0.0645161
0
0.0645162
0.0645161
0.0645161
1
0.0645162
0
-0.0645161
-0.0645162
-0.0645161
-0.0645161
0
-0.0645162
-0.0645161
-0.0645161
1
-0.0645162
-0.0645161
-0.0645161
1
-0.0645162
-0.0645161
-0.0645161
0
-0.0322581
0
0
3

shape_id 8
num_samples 424
0
0
384
0.027027
0.0540541
0.054054
0.054054
0
0.0540541
0.0540541
0
0.054054
0.0540541
0.0540541
0
0.054054
0.054054
0
0.0540541
0.0540541
0
0.054054
0.0540541
0.0540541
0
0.054054
0.054054
0
0.0540541
0
-0.0540541
-0.054054
-0.054054
0
-0.0540541
-0.0540541
0
-0.054054
-0.0540541
-0.054054
-0.0540541
-0.0540541
0
-0.054054
-0.0540541
-0.054054
-0.0540541
-0.054054
-0.0540541
-0.054054
-0.0540541

shape_id 9
num_samples 314
0
0
264
0.032258
0.0645162
0.0645161
0.0645161
2
0.0645162
0.0645161
0.0645162
0.0645161
0.0645161
0
0.0645162
0.0645161
0.0645161
0
0.0645162
0.0645161
0
-0.0645161
-0.0645161
0
-0.0645162
-0.0645161
-0.0645162
-0.0645161
-0.0645161
2
-0.0645162
-0.0645161
-0.0645162
-0.0645161
-0.0645161
1
-0.0322581
0
0
13

shape_id 10
num_samples 424
0
0
384
0.0322581
0.0645161
0.0645161
2
0.0645162
0.0645161
0.0645162
0.0645161
0.0645161
2
0.0645162
0.0645161
0.0645162
0.0645161
0
-0.0645161
-0.0645161
0
-0.0645162
-0.0645161
-0.0645161
0
-0.0645162
-0.0645161
-0.0645161
0
-0.0645162
-0.0645161
-0.0645161
1
-0.0645162
-0.0645161
-0.0645161
0
-0.0322581
0
0
3

shape_id 11
num_samples 314
0
0
264
0.0322581
0.0645161
0.0645161
0
0.0645162
0.0645161
0.0645161
1
0.0645162
0.0645161
0.0645161
0
0.0645162
0.0645161
0.0645161
1
0.0645162
0.0645161
0
-0.0645162
-0.0645161
-0.0645161
0
-0.0645162
-0.0645161
-0.0645161
1
-0.0645162
-0.0645161
-0.0645161
0
-0.0645162
-0.0645161
-0.0645161
1
-0.0645162
-0.032258
0
0
13

shape_id 12
num_samples 424
0
0
384
0.0322581
0.0645161
0.0645161
0
0.0645162
0.0645161
0.0645161
1
0.0645162
0.0645161
0.0645161
0
0.0645162
0.0645161
0.0645161
1
0.0645162
0.0645161
0
-0.0645162
-0.0645161
-0.0645161
0
-0.0645162
-0.0645161
-0.0645161
1
-0.0645162
-0.0645161
-0.0645161
0
-0.0645162
-0.0645161
-0.0645161
1
-0.0645162
-0.032258
0
0
3

shape_id 13
num_samples 314
0
0
264
0.032258
0.0645162
0.0645161
0.0645161
1
0.0645162
0.0645161
0.0645161
1
0.0645162
0.0645161
0.0645162
0.0645161
0.0645161
1
0.0645162
0
-0.0645161
-0.0645161
0
-0.0645162
-0.0645161
-0.0645161
1
-0.0645162
-0.0645162
0
-0.0645161
-0.0645161
1
-0.0645162
-0.0645161
-0.0645161
1
-0.0322581
0
0
13

shape_id 14
num_samples 424
0
0
384
0.032258
0.0645162
0.0645161
0.0645161
1
0.0645162
0.0645161
0.0645161
1
0.0645162
0.0645161
0.0645162
0.0645161
0.0645161
1
