# Pulseq sequence file
# Created by PyPulseq

[VERSION]
major 1
minor 4
revision 2

[DEFINITIONS]
AdcRasterTime 1e-07 
BlockDurationRaster 1e-05 
GradientRasterTime 1e-05 
Name MiniFLASH.seq 
RadiofrequencyRasterTime 5e-06 
TotalDuration 2.56 

# Format of blocks:
# NUM DUR RF  GX  GY  GZ  ADC  EXT
[BLOCKS]
  1 314   1   1   2   3  0  1
  2 1054   0   4   5   6  1  0
  3 632   0   0   0   0  0  0
  4 314   2   1   7   3  0  1
  5 1054   0   4   8   6  2  0
  6 632   0   0   0   0  0  0
  7 314   3   1   9   3  0  1
  8 1054   0   4  10   6  3  0
  9 632   0   0   0   0  0  0
 10 314   4   1  11   3  0  1
 11 1054   0   4  12   6  4  0
 12 632   0   0   0   0  0  0
 13 314   5   1  13   3  0  1
 14 1054   0   4  14   6  5  0
 15 632   0   0   0   0  0  0
 16 314   6   1  15   3  0  1
 17 1054   0   4  16   6  6  0
 18 632   0   0   0   0  0  0
 19 314   7   1  17   3  0  1
 20 1054   0   4  18   6  7  0
 21 632   0   0   0   0  0  0
 22 314   8   1  19   3  0  1
 23 1054   0   4  20   6  8  0
 24 632   0   0   0   0  0  0
 25 314   9   1  21   3  0  1
 26 1054   0   4  22   6  9  0
 27 632   0   0   0   0  0  0
 28 314  10   1  23   3  0  1
 29 1054   0   4  24   6 10  0
 30 632   0   0   0   0  0  0
 31 314  11   1  25   3  0  1
 32 1054   0   4  26   6 11  0
 33 632   0   0   0   0  0  0
 34 314  12   1  27   3  0  1
 35 1054   0   4  28   6 12  0
 36 632   0   0   0   0  0  0
 37 314  13   1  29   3  0  1
 38 1054   0   4  30   6 13  0
 39 632   0   0   0   0  0  0
 40 314  14   1  31   3  0  1
 41 1054   0   4  32   6 14  0
 42 632   0   0   0   0  0  0
 43 314  15   1  33   3  0  1
 44 1054   0   4  34   6 15  0
 45 632   0   0   0   0  0  0
 46 314  16   1  35   3  0  1
 47 1054   0   4  36   6 16  0
 48 632   0   0   0   0  0  0
 49 314  17   1  37   3  0  1
 50 1054   0   4  38   6 17  0
 51 632   0   0   0   0  0  0
 52 314  18   1  39   3  0  1
 53 1054   0   4  40   6 18  0
 54 632   0   0   0   0  0  0
 55 314  19   1  41   3  0  1
 56 1054   0   4  42   6 19  0
 57 632   0   0   0   0  0  0
 58 314  20   1  43   3  0  1
 59 1054   0   4  44   6 20  0
 60 632   0   0   0   0  0  0
 61 314  21   1  45   3  0  1
 62 1054   0   4  46   6 21  0
 63 632   0   0   0   0  0  0
 64 314  22   1  47   3  0  1
 65 1054   0   4  48   6 22  0
 66 632   0   0   0   0  0  0
 67 314  23   1  49   3  0  1
 68 1054   0   4  50   6 23  0
 69 632   0   0   0   0  0  0
 70 314  24   1  51   3  0  1
 71 1054   0   4  52   6 24  0
 72 632   0   0   0   0  0  0
 73 314  25   1  53   3  0  1
 74 1054   0   4  54   6 25  0
 75 632   0   0   0   0  0  0
 76 314  26   1  55   3  0  1
 77 1054   0   4  56   6 26  0
 78 632   0   0   0   0  0  0
 79 314  27   1  57   3  0  1
 80 1054   0   4  58   6 27  0
 81 632   0   0   0   0  0  0
 82 314  28   1  59   3  0  1
 83 1054   0   4  60   6 28  0
 84 632   0   0   0   0  0  0
 85 314  29   1  61   3  0  1
 86 1054   0   4  62   6 29  0
 87 632   0   0   0   0  0  0
 88 314  30   1  63   3  0  1
 89 1054   0   4  64   6 30  0
 90 632   0   0   0   0  0  0
 91 314  31   1  65   3  0  1
 92 1054   0   4  66   6 31  0
 93 632   0   0   0   0  0  0
 94 314  32   1  67   3  0  1
 95 1054   0   4  68   6 32  0
 96 632   0   0   0   0  0  0
 97 314  33   1  69   3  0  1
 98 1054   0   4  70   6 33  0
 99 632   0   0   0   0  0  0
100 314  34   1  71   3  0  1
101 1054   0   4  72   6 34  0
102 632   0   0   0   0  0  0
103 314  35   1  73   3  0  1
104 1054   0   4  74   6 35  0
105 632   0   0   0   0  0  0
106 314  36   1  75   3  0  1
107 1054   0   4  76   6 36  0
108 632   0   0   0   0  0  0
109 314  37   1  77   3  0  1
110 1054   0   4  78   6 37  0
111 632   0   0   0   0  0  0
112 314  38   1  79   3  0  1
113 1054   0   4  80   6 38  0
114 632   0   0   0   0  0  0
115 314  39   1  81   3  0  1
116 1054   0   4  82   6 39  0
117 632   0   0   0   0  0  0
118 314  40   1  83   3  0  1
119 1054   0   4  84   6 40  0
120 632   0   0   0   0  0  0
121 314  41   1  85   3  0  1
122 1054   0   4  86   6 41  0
123 632   0   0   0   0  0  0
124 314  42   1  87   3  0  1
125 1054   0   4  88   6 42  0
126 632   0   0   0   0  0  0
127 314  43   1  89   3  0  1
128 1054   0   4  90   6 43  0
129 632   0   0   0   0  0  0
130 314  44   1  91   3  0  1
131 1054   0   4  92   6 44  0
132 632   0   0   0   0  0  0
133 314  45   1  93   3  0  1
134 1054   0   4  94   6 45  0
135 632   0   0   0   0  0  0
136 314  46   1  95   3  0  1
137 1054   0   4  96   6 46  0
138 632   0   0   0   0  0  0
139 314  47   1  97   3  0  1
140 1054   0   4  98   6 47  0
141 632   0   0   0   0  0  0
142 314  48   1  99   3  0  1
143 1054   0   4 100   6 48  0
144 632   0   0   0   0  0  0
145 314  49   1 101   3  0  1
146 1054   0   4 102   6 49  0
147 632   0   0   0   0  0  0
148 314  50   1 103   3  0  1
149 1054   0   4 104   6 50  0
150 632   0   0   0   0  0  0
151 314  51   1 105   3  0  1
152 1054   0   4 106   6 51  0
153 632   0   0   0   0  0  0
154 314  52   1 107   3  0  1
155 1054   0   4 108   6 52  0
156 632   0   0   0   0  0  0
157 314  53   1 109   3  0  1
158 1054   0   4 110   6 53  0
159 632   0   0   0   0  0  0
160 314  54   1 111   3  0  1
161 1054   0   4 112   6 54  0
162 632   0   0   0   0  0  0
163 314  55   1 113   3  0  1
164 1054   0   4 114   6 55  0
165 632   0   0   0   0  0  0
166 314  56   1 115   3  0  1
167 1054   0   4 116   6 56  0
168 632   0   0   0   0  0  0
169 314  57   1 117   3  0  1
170 1054   0   4 118   6 57  0
171 632   0   0   0   0  0  0
172 314  58   1 119   3  0  1
173 1054   0   4 120   6 58  0
174 632   0   0   0   0  0  0
175 314  59   1 121   3  0  1
176 1054   0   4 122   6 59  0
177 632   0   0   0   0  0  0
178 314  60   1 123   3  0  1
179 1054   0   4 124   6 60  0
180 632   0   0   0   0  0  0
181 314  61   1 125   3  0  1
182 1054   0   4 126   6 61  0
183 632   0   0   0   0  0  0
184 314  62   1 127   3  0  1
185 1054   0   4 128   6 62  0
186 632   0   0   0   0  0  0
187 314  63   1 129   3  0  1
188 1054   0   4 130   6 63  0
189 632   0   0   0   0  0  0
190 314  64   1 131   3  0  1
191 1054   0   4 132   6 64  0
192 632   0   0   0   0  0  0
193 314  65   1   0   3  0  1
194 1054   0   4   0   6 65  0
195 632   0   0   0   0  0  0
196 314  66   1 133   3  0  1
197 1054   0   4 134   6 66  0
198 632   0   0   0   0  0  0
199 314  67   1 135   3  0  1
200 1054   0   4 136   6 67  0
201 632   0   0   0   0  0  0
202 314  68   1 137   3  0  1
203 1054   0   4 138   6 68  0
204 632   0   0   0   0  0  0
205 314  69   1 139   3  0  1
206 1054   0   4 140   6 69  0
207 632   0   0   0   0  0  0
208 314  70   1 141   3  0  1
209 1054   0   4 142   6 70  0
210 632   0   0   0   0  0  0
211 314  71   1 143   3  0  1
212 1054   0   4 144   6 71  0
213 632   0   0   0   0  0  0
214 314  72   1 145   3  0  1
215 1054   0   4 146   6 72  0
216 632   0   0   0   0  0  0
217 314  73   1 147   3  0  1
218 1054   0   4 148   6 73  0
219 632   0   0   0   0  0  0
220 314  74   1 149   3  0  1
221 1054   0   4 150   6 74  0
222 632   0   0   0   0  0  0
223 314  75   1 151   3  0  1
224 1054   0   4 152   6 75  0
225 632   0   0   0   0  0  0
226 314  76   1 153   3  0  1
227 1054   0   4 154   6 76  0
228 632   0   0   0   0  0  0
229 314  77   1 155   3  0  1
230 1054   0   4 156   6 77  0
231 632   0   0   0   0  0  0
232 314  78   1 157   3  0  1
233 1054   0   4 158   6 78  0
234 632   0   0   0   0  0  0
235 314  79   1 159   3  0  1
236 1054   0   4 160   6 79  0
237 632   0   0   0   0  0  0
238 314  80   1 161   3  0  1
239 1054   0   4 162   6 80  0
240 632   0   0   0   0  0  0
241 314  81   1 163   3  0  1
242 1054   0   4 164   6 81  0
243 632   0   0   0   0  0  0
244 314  82   1 165   3  0  1
245 1054   0   4 166   6 82  0
246 632   0   0   0   0  0  0
247 314  83   1 167   3  0  1
248 1054   0   4 168   6 83  0
249 632   0   0   0   0  0  0
250 314  84   1 169   3  0  1
251 1054   0   4 170   6 84  0
252 632   0   0   0   0  0  0
253 314  85   1 171   3  0  1
254 1054   0   4 172   6 85  0
255 632   0   0   0   0  0  0
256 314  86   1 173   3  0  1
257 1054   0   4 174   6 86  0
258 632   0   0   0   0  0  0
259 314  87   1 175   3  0  1
260 1054   0   4 176   6 87  0
261 632   0   0   0   0  0  0
262 314  88   1 177   3  0  1
263 1054   0   4 178   6 88  0
264 632   0   0   0   0  0  0
265 314  89   1 179   3  0  1
266 1054   0   4 180   6 89  0
267 632   0   0   0   0  0  0
268 314  90   1 181   3  0  1
269 1054   0   4 182   6 90  0
270 632   0   0   0   0  0  0
271 314  91   1 183   3  0  1
272 1054   0   4 184   6 91  0
273 632   0   0   0   0  0  0
274 314  92   1 185   3  0  1
275 1054   0   4 186   6 92  0
276 632   0   0   0   0  0  0
277 314  93   1 187   3  0  1
278 1054   0   4 188   6 93  0
279 632   0   0   0   0  0  0
280 314  94   1 189   3  0  1
281 1054   0   4 190   6 94  0
282 632   0   0   0   0  0  0
283 314  95   1 191   3  0  1
284 1054   0   4 192   6 95  0
285 632   0   0   0   0  0  0
286 314  96   1 193   3  0  1
287 1054   0   4 194   6 96  0
288 632   0   0   0   0  0  0
289 314  97   1 195   3  0  1
290 1054   0   4 196   6 97  0
291 632   0   0   0   0  0  0
292 314  98   1 197   3  0  1
293 1054   0   4 198   6 98  0
294 632   0   0   0   0  0  0
295 314  99   1 199   3  0  1
296 1054   0   4 200   6 99  0
297 632   0   0   0   0  0  0
298 314 100   1 201   3  0  1
299 1054   0   4 202   6 100  0
300 632   0   0   0   0  0  0
301 314 101   1 203   3  0  1
302 1054   0   4 204   6 101  0
303 632   0   0   0   0  0  0
304 314 102   1 205   3  0  1
305 1054   0   4 206   6 102  0
306 632   0   0   0   0  0  0
307 314 103   1 207   3  0  1
308 1054   0   4 208   6 103  0
309 632   0   0   0   0  0  0
310 314 104   1 209   3  0  1
311 1054   0   4 210   6 104  0
312 632   0   0   0   0  0  0
313 314 105   1 211   3  0  1
314 1054   0   4 212   6 105  0
315 632   0   0   0   0  0  0
316 314 106   1 213   3  0  1
317 1054   0   4 214   6 106  0
318 632   0   0   0   0  0  0
319 314 107   1 215   3  0  1
[RF]
1      46.4204 1 2 0 100 0 13.09
2      46.4204 1 2 0 100 0 18.326
3      46.4204 1 2 0 100 0 24.4346
4      46.4204 1 2 0 100 0 31.4159
5      46.4204 1 2 0 100 0 39.2699
6      46.4204 1 2 0 100 0 47.9966
7      46.4204 1 2 0 100 0 57.5959
8      46.4204 1 2 0 100 0 68.0678
9      46.4204 1 2 0 100 0 79.4125
10      46.4204 1 2 0 100 0 91.6298
11      46.4204 1 2 0 100 0 104.72
12      46.4204 1 2 0 100 0 118.682
13      46.4204 1 2 0 100 0 133.518
14      46.4204 1 2 0 100 0 149.226
15      46.4204 1 2 0 100 0 165.806
16      46.4204 1 2 0 100 0 183.26
17      46.4204 1 2 0 100 0 201.586
18      46.4204 1 2 0 100 0 220.784
19      46.4204 1 2 0 100 0 240.855
20      46.4204 1 2 0 100 0 261.799
21      46.4204 1 2 0 100 0 283.616
22      46.4204 1 2 0 100 0 306.305
23      46.4204 1 2 0 100 0 329.867
24      46.4204 1 2 0 100 0 354.302
25      46.4204 1 2 0 100 0 379.609
26      46.4204 1 2 0 100 0 405.789
27      46.4204 1 2 0 100 0 432.842
28      46.4204 1 2 0 100 0 460.767
29      46.4204 1 2 0 100 0 489.565
30      46.4204 1 2 0 100 0 519.235
31      46.4204 1 2 0 100 0 549.779
32      46.4204 1 2 0 100 0 581.195
33      46.4204 1 2 0 100 0 613.483
34      46.4204 1 2 0 100 0 646.644
35      46.4204 1 2 0 100 0 680.678
36      46.4204 1 2 0 100 0 715.585
37      46.4204 1 2 0 100 0 751.364
38      46.4204 1 2 0 100 0 788.016
39      46.4204 1 2 0 100 0 825.541
40      46.4204 1 2 0 100 0 863.938
41      46.4204 1 2 0 100 0 903.208
42      46.4204 1 2 0 100 0 943.35
43      46.4204 1 2 0 100 0 984.366
44      46.4204 1 2 0 100 0 1026.25
45      46.4204 1 2 0 100 0 1069.01
46      46.4204 1 2 0 100 0 1112.65
47      46.4204 1 2 0 100 0 1157.15
48      46.4204 1 2 0 100 0 1202.53
49      46.4204 1 2 0 100 0 1248.78
50      46.4204 1 2 0 100 0 1295.91
51      46.4204 1 2 0 100 0 1343.9
52      46.4204 1 2 0 100 0 1392.77
53      46.4204 1 2 0 100 0 1442.51
54      46.4204 1 2 0 100 0 1493.13
55      46.4204 1 2 0 100 0 1544.62
56      46.4204 1 2 0 100 0 1596.98
57      46.4204 1 2 0 100 0 1650.21
58      46.4204 1 2 0 100 0 1704.31
59      46.4204 1 2 0 100 0 1759.29
60      46.4204 1 2 0 100 0 1815.14
61      46.4204 1 2 0 100 0 1871.87
62      46.4204 1 2 0 100 0 1929.46
63      46.4204 1 2 0 100 0 1987.93
64      46.4204 1 2 0 100 0 2047.27
65      46.4204 1 2 0 100 0 2107.49
66      46.4204 1 2 0 100 0 2168.57
67      46.4204 1 2 0 100 0 2230.53
68      46.4204 1 2 0 100 0 2293.36
69      46.4204 1 2 0 100 0 2357.07
70      46.4204 1 2 0 100 0 2421.64
71      46.4204 1 2 0 100 0 2487.09
72      46.4204 1 2 0 100 0 2553.42
73      46.4204 1 2 0 100 0 2620.61
74      46.4204 1 2 0 100 0 2688.68
75      46.4204 1 2 0 100 0 2757.62
76      46.4204 1 2 0 100 0 2827.43
77      46.4204 1 2 0 100 0 2898.12
78      46.4204 1 2 0 100 0 2969.68
79      46.4204 1 2 0 100 0 3042.11
80      46.4204 1 2 0 100 0 3115.41
81      46.4204 1 2 0 100 0 3189.59
82      46.4204 1 2 0 100 0 3264.64
83      46.4204 1 2 0 100 0 3340.56
84      46.4204 1 2 0 100 0 3417.35
85      46.4204 1 2 0 100 0 3495.02
86      46.4204 1 2 0 100 0 3573.56
87      46.4204 1 2 0 100 0 3652.97
88      46.4204 1 2 0 100 0 3733.26
89      46.4204 1 2 0 100 0 3814.42
90      46.4204 1 2 0 100 0 3896.45
91      46.4204 1 2 0 100 0 3979.35
92      46.4204 1 2 0 100 0 4063.13
93      46.4204 1 2 0 100 0 4147.77
94      46.4204 1 2 0 100 0 4233.3
95      46.4204 1 2 0 100 0 4319.69
96      46.4204 1 2 0 100 0 4406.96
97      46.4204 1 2 0 100 0 4495.1
98      46.4204 1 2 0 100 0 4584.11
99      46.4204 1 2 0 100 0 4673.99
100      46.4204 1 2 0 100 0 4764.75
101      46.4204 1 2 0 100 0 4856.38
102      46.4204 1 2 0 100 0 4948.88
103      46.4204 1 2 0 100 0 5042.26
104      46.4204 1 2 0 100 0 5136.5
105      46.4204 1 2 0 100 0 5231.62
106      46.4204 1 2 0 100 0 5327.62
107      46.4204 1 2 0 100 0 5424.48
108      46.4204 1 2 0 100 0 5522.22
109      46.4204 1 2 0 100 0 5620.83
110      46.4204 1 2 0 100 0 5720.32
111      46.4204 1 2 0 100 0 5820.67
112      46.4204 1 2 0 100 0 5921.9
113      46.4204 1 2 0 100 0 6024
114      46.4204 1 2 0 100 0 6126.98
115      46.4204 1 2 0 100 0 6230.83
116      46.4204 1 2 0 100 0 52.3599
117      46.4204 1 2 0 100 0 157.952
118      46.4204 1 2 0 100 0 264.417
119      46.4204 1 2 0 100 0 371.755
120      46.4204 1 2 0 100 0 479.966
121      46.4204 1 2 0 100 0 589.049
122      46.4204 1 2 0 100 0 699.004
123      46.4204 1 2 0 100 0 809.833
124      46.4204 1 2 0 100 0 921.534
125      46.4204 1 2 0 100 0 1034.11
126      46.4204 1 2 0 100 0 1147.55
127      46.4204 1 2 0 100 0 1261.87
128      46.4204 1 2 0 100 0 1377.06

# Format of arbitrary gradients:
#   time_shape_id of 0 means default timing (stepping with grad_raster starting at 1/2 of grad_raster)
# id amplitude amp_shape_id time_shape_id delay
# ..      Hz/m       ..         ..          us
[GRADIENTS]
1  1.29841e+06 3 0 0
2  1.29168e+06 4 0 0
3 -1.43772e+06 5 0 0
4      -111112 6 0 6300
5 -1.29168e+06 7 0 6300
6 -1.43772e+06 8 0 6300
7   1.2715e+06 9 0 0
8  -1.2715e+06 10 0 6300
9  1.25131e+06 11 0 0
10 -1.25131e+06 12 0 6300
11  1.23113e+06 13 0 0
12 -1.23113e+06 14 0 6300
13  1.21095e+06 15 0 0
14 -1.21095e+06 16 0 6300
15  1.19077e+06 17 0 0
16 -1.19077e+06 18 0 6300
17  1.17058e+06 19 0 0
18 -1.17058e+06 20 0 6300
19   1.1504e+06 21 0 0
20  -1.1504e+06 22 0 6300
21  1.13022e+06 23 0 0
22 -1.13022e+06 24 0 6300
23  1.11004e+06 25 0 0
24 -1.11004e+06 26 0 6300
25  1.08985e+06 27 0 0
26 -1.08985e+06 28 0 6300
27  1.06967e+06 29 0 0
28 -1.06967e+06 30 0 6300
29  1.04949e+06 31 0 0
30 -1.04949e+06 32 0 6300
31  1.02931e+06 33 0 0
32 -1.02931e+06 34 0 6300
33  1.00912e+06 35 0 0
34 -1.00912e+06 36 0 6300
35       988942 37 0 0
36      -988942 38 0 6300
37       968760 39 0 0
38      -968760 40 0 6300
39       948577 41 0 0
40      -948577 42 0 6300
41       928395 43 0 0
42      -928395 44 0 6300
43       908212 45 0 0
44      -908212 46 0 6300
45       888030 47 0 0
46      -888030 48 0 6300
47       867847 49 0 0
48      -867847 50 0 6300
49       847665 51 0 0
50      -847665 52 0 6300
51       827482 53 0 0
52      -827482 54 0 6300
53       807300 55 0 0
54      -807300 56 0 6300
55       787117 57 0 0
56      -787117 58 0 6300
57       766935 59 0 0
58      -766935 60 0 6300
59       746752 61 0 0
60      -746752 62 0 6300
61       726570 63 0 0
62      -726570 64 0 6300
63       706387 65 0 0
64      -706387 66 0 6300
65       686205 67 0 0
66      -686205 68 0 6300
67       666022 69 0 0
68      -666022 70 0 6300
69       645840 71 0 0
70      -645840 72 0 6300
71       625657 73 0 0
72      -625657 74 0 6300
73       605475 75 0 0
74      -605475 76 0 6300
75       585292 77 0 0
76      -585292 78 0 6300
77       565110 79 0 0
78      -565110 80 0 6300
79       544927 81 0 0
80      -544927 82 0 6300
81       524745 83 0 0
82      -524745 84 0 6300
83       504562 85 0 0
84      -504562 86 0 6300
85       484380 87 0 0
86      -484380 88 0 6300
87       464197 3 0 0
88      -464197 89 0 6300
89       444015 90 0 0
90      -444015 91 0 6300
91       423832 92 0 0
92      -423832 93 0 6300
93       403650 94 0 0
94      -403650 95 0 6300
95       383467 96 0 0
96      -383467 97 0 6300
97       363285 98 0 0
98      -363285 99 0 6300
99       343102 100 0 0
100      -343102 101 0 6300
101       322920 102 0 0
102      -322920 103 0 6300
103       302737 104 0 0
104      -302737 105 0 6300
105       282555 106 0 0
106      -282555 107 0 6300
107       262372 108 0 0
108      -262372 109 0 6300
109       242190 110 0 0
110      -242190 111 0 6300
111       222007 112 0 0
112      -222007 113 0 6300
113       201825 114 0 0
114      -201825 115 0 6300
115       181642 116 0 0
116      -181642 117 0 6300
117       161460 118 0 0
118      -161460 119 0 6300
119       141277 120 0 0
120      -141277 121 0 6300
121       121095 122 0 0
122      -121095 123 0 6300
123       100912 124 0 0
124      -100912 125 0 6300
125        80730 126 0 0
126       -80730 127 0 6300
127      60547.5 128 0 0
128     -60547.5 129 0 6300
129        40365 130 0 0
130       -40365 131 0 6300
131      20182.5 132 0 0
132     -20182.5 133 0 6300
133     -20182.5 132 0 0
134      20182.5 133 0 6300
135       -40365 130 0 0
136        40365 131 0 6300
137     -60547.5 128 0 0
138      60547.5 129 0 6300
139       -80730 126 0 0
140        80730 127 0 6300
141      -100912 124 0 0
142       100912 125 0 6300
143      -121095 122 0 0
144       121095 123 0 6300
145      -141277 120 0 0
146       141277 121 0 6300
147      -161460 118 0 0
148       161460 119 0 6300
149      -181642 116 0 0
150       181642 117 0 6300
151      -201825 114 0 0
152       201825 115 0 6300
153      -222007 112 0 0
154       222007 113 0 6300
155      -242190 110 0 0
156       242190 111 0 6300
157      -262372 108 0 0
158       262372 109 0 6300
159      -282555 106 0 0
160       282555 107 0 6300
161      -302737 104 0 0
162       302737 105 0 6300
163      -322920 102 0 0
164       322920 103 0 6300
165      -343102 100 0 0
166       343102 101 0 6300
167      -363285 98 0 0
168       363285 99 0 6300
169      -383467 96 0 0
170       383467 97 0 6300
171      -403650 94 0 0
172       403650 95 0 6300
173      -423832 92 0 0
174       423832 93 0 6300
175      -444015 90 0 0
176       444015 91 0 6300
177      -464197 3 0 0
178       464197 89 0 6300
179      -484380 87 0 0
180       484380 88 0 6300
181      -504562 85 0 0
182       504562 86 0 6300
183      -524745 83 0 0
184       524745 84 0 6300
185      -544927 81 0 0
186       544927 82 0 6300
187      -565110 79 0 0
188       565110 80 0 6300
189      -585292 77 0 0
190       585292 78 0 6300
191      -605475 75 0 0
192       605475 76 0 6300
193      -625657 73 0 0
194       625657 74 0 6300
195      -645840 71 0 0
196       645840 72 0 6300
197      -666022 69 0 0
198       666022 70 0 6300
199      -686205 67 0 0
200       686205 68 0 6300
201      -706387 65 0 0
202       706387 66 0 6300
203      -726570 63 0 0
204       726570 64 0 6300
205      -746752 61 0 0
206       746752 62 0 6300
207      -766935 59 0 0
208       766935 60 0 6300
209      -787117 57 0 0
210       787117 58 0 6300
211      -807300 55 0 0
212       807300 56 0 6300
213      -827482 53 0 0
214       827482 54 0 6300
215      -847665 51 0 0
216       847665 52 0 6300
217      -867847 49 0 0
218       867847 50 0 6300
219      -888030 47 0 0
220       888030 48 0 6300
221      -908212 45 0 0
222       908212 46 0 6300
223      -928395 43 0 0
224       928395 44 0 6300
225      -948577 41 0 0
226       948577 42 0 6300
227      -968760 39 0 0
228       968760 40 0 6300
229      -988942 37 0 0
230       988942 38 0 6300
231 -1.00912e+06 35 0 0
232  1.00912e+06 36 0 6300
233 -1.02931e+06 33 0 0
234  1.02931e+06 34 0 6300
235 -1.04949e+06 31 0 0
236  1.04949e+06 32 0 6300
237 -1.06967e+06 29 0 0
238  1.06967e+06 30 0 6300
239 -1.08985e+06 27 0 0
240  1.08985e+06 28 0 6300
241 -1.11004e+06 25 0 0
242  1.11004e+06 26 0 6300
243 -1.13022e+06 23 0 0
244  1.13022e+06 24 0 6300
245  -1.1504e+06 21 0 0
246   1.1504e+06 22 0 6300
247 -1.17058e+06 19 0 0
248  1.17058e+06 20 0 6300
249 -1.19077e+06 17 0 0
250  1.19077e+06 18 0 6300
251 -1.21095e+06 15 0 0
252  1.21095e+06 16 0 6300
253 -1.23113e+06 13 0 0
254  1.23113e+06 14 0 6300
255 -1.25131e+06 11 0 0
256  1.25131e+06 12 0 6300
257  -1.2715e+06 9 0 0
258   1.2715e+06 10 0 6300

# Format of ADC events:
# id num dwell delay freq phase
# ..  ..    ns    us   Hz   rad
[ADC]
1 256 15000 6320 0 13.09
2 256 15000 6320 0 18.326
3 256 15000 6320 0 24.4346
4 256 15000 6320 0 31.4159
5 256 15000 6320 0 39.2699
6 256 15000 6320 0 47.9966
7 256 15000 6320 0 57.5959
8 256 15000 6320 0 68.0678
9 256 15000 6320 0 79.4125
10 256 15000 6320 0 91.6298
11 256 15000 6320 0 104.72
12 256 15000 6320 0 118.682
13 256 15000 6320 0 133.518
14 256 15000 6320 0 149.226
15 256 15000 6320 0 165.806
16 256 15000 6320 0 183.26
17 256 15000 6320 0 201.586
18 256 15000 6320 0 220.784
19 256 15000 6320 0 240.855
20 256 15000 6320 0 261.799
21 256 15000 6320 0 283.616
22 256 15000 6320 0 306.305
23 256 15000 6320 0 329.867
24 256 15000 6320 0 354.302
25 256 15000 6320 0 379.609
26 256 15000 6320 0 405.789
27 256 15000 6320 0 432.842
28 256 15000 6320 0 460.767
29 256 15000 6320 0 489.565
30 256 15000 6320 0 519.235
31 256 15000 6320 0 549.779
32 256 15000 6320 0 581.195
33 256 15000 6320 0 613.483
34 256 15000 6320 0 646.644
35 256 15000 6320 0 680.678
36 256 15000 6320 0 715.585
37 256 15000 6320 0 751.364
38 256 15000 6320 0 788.016
39 256 15000 6320 0 825.541
40 256 15000 6320 0 863.938
41 256 15000 6320 0 903.208
42 256 15000 6320 0 943.35
43 256 15000 6320 0 984.366
44 256 15000 6320 0 1026.25
45 256 15000 6320 0 1069.01
46 256 15000 6320 0 1112.65
47 256 15000 6320 0 1157.15
48 256 15000 6320 0 1202.53
49 256 15000 6320 0 1248.78
50 256 15000 6320 0 1295.91
51 256 15000 6320 0 1343.9
52 256 15000 6320 0 1392.77
53 256 15000 6320 0 1442.51
54 256 15000 6320 0 1493.13
55 256 15000 6320 0 1544.62
56 256 15000 6320 0 1596.98
57 256 15000 6320 0 1650.21
58 256 15000 6320 0 1704.31
59 256 15000 6320 0 1759.29
60 256 15000 6320 0 1815.14
61 256 15000 6320 0 1871.87
62 256 15000 6320 0 1929.46
63 256 15000 6320 0 1987.93
64 256 15000 6320 0 2047.27
65 256 15000 6320 0 2107.49
66 256 15000 6320 0 2168.57
67 256 15000 6320 0 2230.53
68 256 15000 6320 0 2293.36
69 256 15000 6320 0 2357.07
70 256 15000 6320 0 2421.64
71 256 15000 6320 0 2487.09
72 256 15000 6320 0 2553.42
73 256 15000 6320 0 2620.61
74 256 15000 6320 0 2688.68
75 256 15000 6320 0 2757.62
76 256 15000 6320 0 2827.43
77 256 15000 6320 0 2898.12
78 256 15000 6320 0 2969.68
79 256 15000 6320 0 3042.11
80 256 15000 6320 0 3115.41
81 256 15000 6320 0 3189.59
82 256 15000 6320 0 3264.64
83 256 15000 6320 0 3340.56
84 256 15000 6320 0 3417.35
85 256 15000 6320 0 3495.02
86 256 15000 6320 0 3573.56
87 256 15000 6320 0 3652.97
88 256 15000 6320 0 3733.26
89 256 15000 6320 0 3814.42
90 256 15000 6320 0 3896.45
91 256 15000 6320 0 3979.35
92 256 15000 6320 0 4063.13
93 256 15000 6320 0 4147.77
94 256 15000 6320 0 4233.3
95 256 15000 6320 0 4319.69
96 256 15000 6320 0 4406.96
97 256 15000 6320 0 4495.1
98 256 15000 6320 0 4584.11
99 256 15000 6320 0 4673.99
100 256 15000 6320 0 4764.75
101 256 15000 6320 0 4856.38
102 256 15000 6320 0 4948.88
103 256 15000 6320 0 5042.26
104 256 15000 6320 0 5136.5
105 256 15000 6320 0 5231.62
106 256 15000 6320 0 5327.62
107 256 15000 6320 0 5424.48
108 256 15000 6320 0 5522.22
109 256 15000 6320 0 5620.83
110 256 15000 6320 0 5720.32
111 256 15000 6320 0 5820.67
112 256 15000 6320 0 5921.9
113 256 15000 6320 0 6024
114 256 15000 6320 0 6126.98
115 256 15000 6320 0 6230.83
116 256 15000 6320 0 52.3599
117 256 15000 6320 0 157.952
118 256 15000 6320 0 264.417
119 256 15000 6320 0 371.755
120 256 15000 6320 0 479.966
121 256 15000 6320 0 589.049
122 256 15000 6320 0 699.004
123 256 15000 6320 0 809.833
124 256 15000 6320 0 921.534
125 256 15000 6320 0 1034.11
126 256 15000 6320 0 1147.55
127 256 15000 6320 0 1261.87
128 256 15000 6320 0 1377.06

# Format of extension lists:
# id type ref next_id
# next_id of 0 terminates the list
# Extension list is followed by extension specifications
[EXTENSIONS]
1 1 1 0

# Extension specification for digital output and input triggers:
# id type channel delay (us) duration (us)
extension TRIGGERS 1
1 1 1 0 10

# Sequence Shapes
[SHAPES]

shape_id 1
num_samples 512
0
0
30
0.0048309
0
0
21
-0.0048309
0
0
13
0.0048309
0
0
1
0.0048309
0
0
1
0.0096619
0
0
1
0.0048309
0
0
1
0.0096618
0
0
1
0.0144928
0
0
1
0.0096618
0
0
1
0.0144928
0
0
1
0.0144927
0
0
1
0.0193237
0
0
1
0.0144927
0
0
1
0.0241546
0
0
1
0.0193237
0
0
1
0.0241546
0
0
1
0.0241546
0
0
1
0.0241546
0
0
1
0.0289855
0
0
1
0.0289855
0
0
1
0.0289855
0
0
1
0.0289855
0
0
1
0.0338164
0
0
1
0.0289855
0
0
1
0.0338165
0
0
1
0.0338164
0
0
1
0.0338164
0
0
1
0.0338164
0
0
1
0.0338165
0
0
1
0.0338164
0
0
1
0.0338164
0
0
1
0.0338164
0
0
1
0.0338165
0
0
1
0.0289855
0
0
1
0.0289855
0
0
1
0.0289855
0
0
1
0.0289855
0
0
1
0.0241546
0
0
1
0.0241546
0
0
1
0.0241546
0
0
1
0.0193236
0
0
1
0.0193237
0
0
1
0.0144928
0
0
1
0.0144927
0
0
1
0.0096618
0
0
1
0.004831
0
0
1
0.0096618
0
0
13
-0.0096618
0
0
1
-0.004831
0
0
1
-0.0096618
0
0
1
-0.0144927
0
0
1
-0.0144928
0
0
1
-0.0193237
0
0
1
-0.0193236
0
0
1
-0.0241546
0
0
1
-0.0241546
0
0
1
-0.0241546
0
0
1
-0.0289855
0
0
1
-0.0289855
0
0
1
-0.0289855
0
0
1
-0.0289855
0
0
1
-0.0338165
0
0
1
-0.0338164
0
0
1
-0.0338164
0
0
1
-0.0338164
0
0
1
-0.0338165
0
0
1
-0.0338164
0
0
1
-0.0338164
0
0
1
-0.0338164
0
0
1
-0.0338165
0
0
1
-0.0289855
0
0
1
-0.0338164
0
0
1
-0.0289855
0
0
1
-0.0289855
0
0
1
-0.0289855
0
0
1
-0.0289855
0
0
1
-0.0241546
0
0
1
-0.0241546
0
0
1
-0.0241546
0
0
1
-0.0193237
0
0
1
-0.0241546
0
0
1
-0.0144927
0
0
1
-0.0193237
0
0
1
-0.0144927
0
0
1
-0.0144928
0
0
1
-0.0096618
0
0
1
-0.0144928
0
0
1
-0.0096618
0
0
1
-0.0048309
0
0
1
-0.0096619
0
0
1
-0.0048309
0
0
1
-0.0048309
0
0
13
0.0048309
0
0
21
-0.0048309
0
0
29

shape_id 2
num_samples 512
0
0
6
0.5
0
0
53
-0.5
0
0
381
0.5
0
0
53
-0.5
0
0
5

shape_id 3
num_samples 314
0
0
264
0.0322581
0.0645161
0.0645161
0
0.0645162
0.0645161
0.0645161
1
0.0645162
0.0645161
0.0645161
0
0.0645162
0.0645161
0.0645161
1
0.0645162
0.0645161
0
-0.0645161
-0.0645162
-0.0645161
-0.0645161
1
-0.0645162
-0.0645161
-0.0645161
0
-0.0645162
-0.0645161
-0.0645161
1
-0.0645162
-0.0645161
-0.0645161
0
-0.0322581
0
0
13

shape_id 4
num_samples 314
0
0
264
0.032258
0.0645162
0.0645161
0.0645161
2
0.0645162
0.0645161
0.0645162
0.0645161
0.0645161
2
0.0645162
0.0645161
0.0645161
0
1e-07
-0.0645161
-0.0645162
-0.0645161
-0.0645161
1
-0.0645162
-0.0645161
-0.0645161
1
-0.0645162
-0.0645161
-0.0645161
1
-0.0645162
-0.0645161
-0.0322581
0
0
13

shape_id 5
num_samples 314
0.0073359
0.0146718
0.0146718
1
0.0146719
0.0146718
0.0146718
3
0.0073359
0
0
253
-0.0073359
-0.0146718
-0.0146718
6
-0.0146719
-0.0343629
-0.0540541
-0.054054
-0.054054
0
-0.0540541
-0.0540541
0
-0.054054
-0.0540541
-0.054054
-0.0540541
-0.0540541
0
-0.054054
-0.054054
0
-0.0540541
-0.0540541
0
-0.054054
-0.0540541
-0.054054
-0.0540541
0
0.0540541
0.054054
0.0540541
0.054054
0.0540541
0.054054
0.0540541
0.0540541
0
0.054054
0.054054
0
0.0540541
0.0540541
1
0.054054
0.054054
0
0.0540541
0.0540541
0
0.054054

shape_id 6
num_samples 424
0.2499998
0.5
0.2500002
0
0
381
-0.2500002
-0.5
-0.2499998
0
0
33

shape_id 7
num_samples 424
0
0
384
0.032258
0.0645162
0.0645161
0.0645161
0
0.0645162
0.0645161
0.0645161
1
0.0645162
0.0645161
0.0645161
0
0.0645162
0.0645161
0.0645161
1
0.0645162
0
-0.0645161
-0.0645162
-0.0645161
-0.0645161
0
-0.0645162
-0.0645161
-0.0645161
1
-0.0645162
-0.0645161
-0.0645161
1
-0.0645162
-0.0645161
-0.0645161
0
-0.0322581
0
0
3

shape_id 8
num_samples 424
0
0
384
0.027027
0.0540541
0.054054
0.054054
0
0.0540541
0.0540541
0
0.054054
0.0540541
0.0540541
0
0.054054
0.054054
0
0.0540541
0.0540541
0
0.054054
0.0540541
0.0540541
0
0.054054
0.054054
0
0.0540541
0
-0.0540541
-0.054054
-0.054054
0
-0.0540541
-0.0540541
0
-0.054054
-0.0540541
-0.054054
-0.0540541
-0.0540541
0
-0.054054
-0.0540541
-0.054054
-0.0540541
-0.054054
-0.0540541
-0.054054
-0.0540541

shape_id 9
num_samples 314
0
0
264
0.032258
0.0645162
0.0645161
0.0645161
2
0.0645162
0.0645161
0.0645162
0.0645161
0.0645161
0
0.0645162
0.0645161
0.0645161
0
0.0645162
0.0645161
0
-0.0645161
-0.0645161
0
-0.0645162
-0.0645161
-0.0645162
-0.0645161
-0.0645161
2
-0.0645162
-0.0645161
-0.0645162
-0.0645161
-0.0645161
1
-0.0322581
0
0
13

shape_id 10
num_samples 424
0
0
384
0.0322581
0.0645161
0.0645161
2
0.0645162
0.0645161
0.0645162
0.0645161
0.0645161
2
0.0645162
0.0645161
0.0645162
0.0645161
0
-0.0645161
-0.0645161
0
-0.0645162
-0.0645161
-0.0645161
0
-0.0645162
-0.0645161
-0.0645161
0
-0.0645162
-0.0645161
-0.0645161
1
-0.0645162
-0.0645161
-0.0645161
0
-0.0322581
0
0
3

shape_id 11
num_samples 314
0
0
264
0.0322581
0.0645161
0.0645161
0
0.0645162
0.0645161
0.0645161
1
0.0645162
0.0645161
0.0645161
0
